Time,EMG_RT_BRACHIORAD,EMG_RT_EXT,EMG_RT_FLEX,EMG_RT_BICEPS_BR,EMG_RT_LAT,EMG_RT_ANT,EMG_RT_POST,EMG_RT_MID_DELT,EMG_RT_PECT,EMG_RT_INFRASPIN,humerus_l_imu,radius_l_imu,hand_r_imu,pelvis_imu,torso_imu,humerus_r_imu,radius_r_imu
-3.0,1.783052664184602,21.62415521516261,5.147631189526315,1.6707331930499345,4.5113667942178814,1.6305669178261006,6.037826188442987,1.9613694179585757,0.9459832766870471,6.721068480838847,0.0002830000000000332,1.2000000000012001e-05,0.0002909999999999857,0.0001309999999998812,0.00018899999999999473,4.799999999999249e-05,1.2000000000012001e-05
-2.99,1.8169902129500084,21.10827820804348,4.952529001726221,1.6866611412675456,4.4221401371778395,1.6166016075648373,6.006074871914746,2.117916815378586,0.9878853228627219,6.505978414169489,0.00018599401197602036,5.211976047907618e-05,0.00032094011976046053,0.00010704790419147477,0.000145886227544913,5.279041916167378e-05,1.3197604790432323e-05
-2.9800000000000004,1.8458866398691525,20.50913988970492,4.772575394343159,1.712468223034676,4.281215969964402,1.6083830455070327,6.141769076910576,2.270176525814003,1.0537104384335174,6.280807052498409,0.0001085508982035149,7.247904191620813e-05,0.00033131736526944986,0.00013348502994001198,0.0001247065868263486,5.204790419161405e-05,2.6251497005995532e-05
-2.9700000000000006,1.867625519173895,19.92344362861074,4.626152848293441,1.7433796580949121,4.10152179907949,1.6061514803795625,6.425572200116287,2.40959968292531,1.1402957643831992,6.059788872496288,7.082634730529137e-05,5.271856287425619e-05,0.00030197604790420184,0.0002622275449102465,0.00014805988023951162,4.0071856287410827e-05,6.337724550897566e-05
-2.960000000000001,1.8797183671920197,19.45100550235445,4.525283978506491,1.7742657531294137,3.8997741351369037,1.6095452986536283,6.815585583285659,2.529535662329723,1.24322033984106,5.851495091030585,0.0001621686746987701,5.315662650604391e-05,0.00022997590361447566,0.00032627710843379567,0.0002243855421686783,4.196385542168432e-05,7.48072289156597e-05
-2.950000000000001,1.8798700272997597,19.174772188615428,4.475427839604825,1.8000171750347842,3.6925328776812463,1.6181374249147957,7.253038366654714,2.6246399268994445,1.3564918472541123,5.660854547556589,0.00032000000000010904,6.40000000000639e-05,0.00013600000000001648,0.0003569999999999241,0.00032799999999999827,5.100000000002144e-05,7.299999999999702e-05
-2.9400000000000013,1.8667269907914998,19.14040654597757,4.4760706250563524,1.8161305023592764,3.492560510817788,1.6317815783775376,7.670674736748565,2.6913195182383145,1.4725655422893609,5.490862462417343,0.00038227544910176636,6.340119760477064e-05,8.809580838323682e-05,0.0002635868263472719,0.0001902754491017775,4.082035928146532e-05,3.5874251497000264e-05
-2.9300000000000015,1.8403095169317096,19.345322132046643,4.522739497505444,1.8193489974802317,3.3070352904702274,1.650741752321453,8.002174257415753,2.728286805734055,1.5824023138828684,5.344425069982004,0.00040167065868255573,5.272455089813587e-05,5.3431137724564375e-05,0.00017906586826347756,0.00012566467065868508,3.518562874253961e-05,1.5940119760477356e-05
-2.9200000000000017,1.8019826046756666,19.73964413142216,4.609343877857543,1.8082316143476544,3.137517808523551,1.6756812424566896,8.191670107436098,2.7370930794295463,1.675784277511004,5.22498144525568,0.00033400598802405684,2.1586826347273967e-05,4.564670658688214e-05,0.00011259880239523276,0.00020949700598804118,3.877844311376733e-05,3.0910179640714766e-05
-2.910000000000002,1.75435747201079,20.23511171294552,4.729346444751862,1.7836027212331704,2.9823623501405088,1.7074015804426383,8.200996958049066,2.722264951401551,1.7415646574034993,5.136104230243521,0.00024380722891570797,3.167469879514191e-05,0.00010979518072290126,0.00014844578313252772,0.00019545783132529382,5.43132530120259e-05,2.8048192771086765e-05
-2.900000000000002,1.7007243165850974,20.724960276786895,4.877179513287396,1.7485321036777184,2.838363380419774,1.7467337613917995,8.01576739882146,2.69093237239584,1.769434884363653,5.078799033408774,0.00014199999999986446,6.299999999992423e-05,0.0002109999999999057,0.0002369999999999317,0.00013099999999996448,7.599999999996498e-05,1.6000000000016e-05
-2.8900000000000023,1.6448143057311762,21.101864136821884,5.04849307978667,1.7078559342095512,2.7039990260543294,1.7941740972587121,7.6454730428484226,2.6519145878086072,1.751321832782515,5.050071046755246,8.391616766466164e-05,9.353892215569231e-05,0.0002708802395209551,0.00022921556886224947,9.26766467065474e-05,7.95928143712592e-05,1.1808383233544873e-05
-2.8800000000000026,1.5903231019982835,21.274509720546867,5.2402040570765696,1.6670274931784492,2.580857822402855,1.8497846655091243,7.121384053536243,2.6146593010977615,1.6837714795715764,5.042068005674058,4.420958083839547e-05,0.00011577844311383789,0.0003078383233533411,0.00017993413173654244,7.075449101793408e-05,7.94311377245808e-05,1.7694610778448214e-05
-2.8700000000000028,1.540529271747722,21.17804635325456,5.449236090340618,1.6305556983321012,2.4740480541109924,1.913361779847635,6.491686773778871,2.5880526145975873,1.570432757742957,5.043212276076904,4.1814371257554826e-05,0.00012116766467074596,0.00029825748502994526,4.640119760482606e-05,8.213173652696038e-05,7.164670658686531e-05,4.404191616766207e-05
-2.860000000000003,1.4981019297795757,20.77887439006962,5.670167634349593,1.6004603133288664,2.391526760438287,1.9848751775674376,5.814212539384037,2.5792826392707577,1.4241415514336082,5.040892731558999,4.77590361445973e-05,0.00011186746987951615,0.00020434939759036703,7.137349397591136e-05,8.679518072291166e-05,4.1963855421684324e-05,5.8168674698791285e-05
-2.850000000000003,1.4653538780526032,20.078876103063436,5.891757423908046,1.5753424657436919,2.3430558861778725,2.0644746216999987,5.151990718732819,2.5930567209167608,1.2689412086678886,5.024708160933618,5.799999999994517e-05,9.49999999998482e-05,6.700000000000816e-05,0.00017799999999999254,8.800000000000452e-05,9.99999999925011e-07,6.599999999999522e-05
-2.8400000000000034,1.444166441066203,19.11344035908407,6.097277553598678,1.5499789892932339,2.337822493436191,2.153022722807613,4.56259112928401,2.631366918792066,1.139042811854661,4.989239307029603,5.141317365268624e-05,8.18263473053902e-05,4.843712574848866e-05,0.00022470658682629602,9.458682634729873e-05,1.297604790411883e-05,4.9832335329341754e-05
-2.8300000000000036,1.436215163945915,17.94981051185229,6.264952762401883,1.516284307286555,2.3827953901642385,2.251792061059949,4.09553033077593,2.69419890852886,1.0772183687418422,4.935885884445994,6.359880239521146e-05,6.726946107791608e-05,5.971257485027544e-05,0.0002658802395209167,0.0001146107784430896,2.0999999999959673e-05,5.3820359281422114e-05
-2.820000000000004,1.442712919590387,16.679414304823506,6.371657406668135,1.4651663119974376,2.4808268977367076,2.362313555648,3.7870315397316054,2.7809728745603173,1.130329186423812,4.873619295297516,0.00011389820359279852,4.990419161673829e-05,0.00013156886227546155,0.0002958203592815244,0.0001619161676646425,2.1000000000026155e-05,9.873053892213435e-05
-2.810000000000004,1.4640709528306273,15.405220287960137,6.397671072732588,1.389110591282055,2.629505833233481,2.4858994067581777,3.656037947383609,2.892610614384737,1.343467309152186,4.818375010981462,0.0001576385542168628,5.5927710843334866e-05,0.00017309638554216755,0.00029844578313258834,0.0001080240963855771,2.8554216867511604e-05,0.00012314457831324698
-2.8000000000000043,1.49946518172783,14.233059754318434,6.331420627151546,1.2855312292450098,2.819932741531028,2.622076125482505,3.702109057383815,3.0328675775464773,1.7517747785838347,4.79120015375339,0.00019800000000001715,7.400000000001207e-05,0.00019899999999994,0.00028699999999993027,2.0000000000674318e-06,4.000000000003594e-05,0.00013700000000000718
-2.7900000000000045,1.546741910343083,13.250816887568618,6.173240101227489,1.1591904952396797,3.0380432164610918,2.7680766895598095,3.904704896325014,3.21002144060962,2.3745362723876027,4.814499054885445,0.00018422754491018606,7.639520958085829e-05,9.00179640719048e-05,0.00016903592814368268,3.7928143712576805e-05,7.473053892215054e-05,0.00014238922155688502
-2.7800000000000047,1.6022262730023396,12.524319744975166,5.936632381550415,1.0245946611854162,3.265622912272157,2.917553402601119,4.2269815801274015,3.436402668548865,3.208708651938617,4.908119431827014,0.00017065269461076033,8.017365269462722e-05,6.541317365267726e-05,9.790419161666592e-05,6.04191616766591e-05,0.0001023473053892074,0.00015825149700596992
-2.770000000000005,1.660815350118861,12.091565437141437,5.64706126856645,0.906713615837868,3.483034822468428,3.06084781114383,4.621101109789535,3.7273209259413123,4.2255374917896305,5.085017846084332,0.00015747904191613677,8.676047904192237e-05,0.00021211976047901717,0.0001218562874250059,5.562874251499443e-05,0.00011552095808383094,0.000195377245508975
-2.760000000000005,1.7163776547390663,11.962712881953319,5.338149863861995,0.8400446774469115,3.6725694495451426,3.1860897610297347,5.034968078666935,4.098738166738003,5.370294558624233,5.347608053181778,0.00010966265060243431,9.496385542168301e-05,0.00030414457831323775,9.699999999998731e-05,6.036144578312733e-05,0.00011006024096387285,0.00020561445783132736
-2.7500000000000053,1.7624510091104222,12.123251191913182,5.04605559543409,0.8659021662614049,3.8220648023485415,3.2809426018794703,5.419098475023006,4.5643763890875535,6.566953982222791,5.685848398509546,4.4000000000078997e-05,0.00010399999999998818,0.0003679999999999454,4.7000000000156915e-05,6.999999999995385e-05,9.500000000001976e-05,0.0002019999999999819
-2.7400000000000055,1.79286334867005,12.537096999797527,4.804637472781607,1.0275670046367216,3.926904312975894,3.3342277042976822,5.730395351376653,5.129578871987179,7.720447779870384,6.075565809411914,5.657485029943407e-05,8.603592814366448e-05,0.00037937724550898307,7.155089820361746e-05,0.00017419161676641336,4.3502994012031795e-05,0.00016367664670660826
-2.7300000000000058,1.8029096113483043,13.152302711319432,4.638137347838324,1.3641704622613848,3.991259522174008,3.338739508044385,5.938192158790735,5.789796074627304,8.734030926702596,6.482675157734011,8.061077844310012e-05,6.807185628739222e-05,0.0003579520958084492,8.839520958080403e-05,0.0002232514970060515,3.093413173651869e-05,0.00013503592814372806
-2.720000000000006,1.7900783724567348,13.905768896469114,4.558562906584924,1.9036760796350067,4.025290933836217,3.293424609423796,6.024681819169724,6.525405475823831,9.516309315839184,6.866407320599031,0.0001279161676645865,5.010778443125358e-05,0.00026992814371260536,8.959281437119111e-05,0.0001603772455090178,9.74011976047635e-05,0.00012605389221557564
-2.710000000000006,1.7548148795695429,14.728751835506856,4.564055748531532,2.6561496595769327,4.041625180293575,3.2063722138902557,5.985783954483286,7.300716031231827,9.994445211012188,7.186056288131604,0.00014439759036142302,3.087951807234217e-05,0.0002491445783132284,0.00011186746987947915,9.685542168677433e-05,0.00013192771084336288,9.755421686749035e-05
-2.7000000000000064,1.7005852520382028,15.553025995286998,4.640297071349708,3.6097508092474433,4.051639802451951,3.0974329200483948,5.830006272262032,8.065770122068056,10.124282940894581,7.4081336341503015,0.00014500000000006153,1.0999999999879284e-05,0.0002630000000000083,0.00014500000000004998,3.3000000000027934e-05,0.00014999999999997706,5.9000000000017196e-05
-2.6900000000000066,1.6334629732132566,16.312235920833373,4.7635711170113,4.724533459030816,4.062826187546753,3.0006927516069526,5.577053935061412,8.756791012657779,9.896135092695527,7.51100532765554,0.0001701497005988131,2.357485029936424e-05,0.0003288682634730411,0.00010248502994010555,3.779041916167653e-05,0.0001266467065868121,3.923952095809182e-05
-2.680000000000007,1.5605133983586947,16.95109445026241,4.906061395810691,5.940023732511289,4.077834633914077,2.96439651612561,5.2535634234800295,9.307159365444814,9.335491567859343,7.488458320557204,0.0001911497005987995,4.286826347307755e-05,0.0003767544910179698,6.293413173648121e-05,4.850898203592005e-05,0.00010171257485029053,2.2838323353295234e-05
-2.670000000000007,1.4885253818476325,17.42615869510527,5.040703534753306,7.177727824560858,4.09503028483401,3.049903439198282,4.889542918038602,9.653675994843615,8.496679734842825,7.347506880863577,0.00020372455089822953,7.58023952096198e-05,0.00038813173652694626,2.9401197604845144e-05,7.126347305388956e-05,7.356886227546282e-05,1.3257485029940965e-05
-2.6600000000000072,1.4227494449875246,17.710065758420896,5.145591640324785,8.352154619871689,4.110118921931796,3.3270909178835115,4.514139708757973,9.749162477958969,7.454593254453212,7.105038481461328,0.00020919277108432397,8.739759036147203e-05,0.00041346987951805926,8.161445783132711e-05,7.90000000000041e-05,6.360240963857364e-05,1.5168674698787133e-05
-2.6500000000000075,1.3662368347582787,17.79230160434088,5.206823307589518,9.383378575064445,4.1179404211656045,3.866204683100967,4.152326971611726,9.574458050710245,6.295296255626742,6.783444214673197,0.00021099999999990473,8.799999999997666e-05,0.0004459999999999846,0.00017799999999996012,7.899999999999574e-05,6.300000000003558e-05,2.2999999999991072e-05
-2.6400000000000077,1.3197978537222665,17.67646440028957,5.21956916517093,10.20980531815847,4.113836224041795,4.727312846453256,3.8225214354639037,9.145896165076232,5.105527587316202,6.406553093571675,0.00018225748502996624,6.943712574848849e-05,0.0004483952095808081,0.00016243113772458883,0.00010654491017962355,3.785029940118864e-05,7.329940119758044e-05
-2.630000000000008,1.2827582987515371,17.377523172421526,5.1876582278876375,10.792939424132884,4.094194181194242,5.942885199058109,3.5370033997652386,8.517131522985313,3.968791091162519,5.998922507263843,0.00017189221556890746,6.055688622752677e-05,0.00043280838323353553,0.00014607185628745992,0.00011768862275450247,3.167065868257488e-05,0.00011035928143712743
-2.620000000000008,1.2536158332315805,16.919024809335678,5.122261766728977,11.123362725862508,4.05620656633489,7.510005144764608,3.300007114804278,7.767181800019942,2.9508205984146643,5.5828007368979335,0.00019883832335328163,7.133532934134291e-05,0.0003807125748503679,0.00012810778443112184,9.553293413174313e-05,6.400598802395682e-05,0.00012053892215568355
-2.6100000000000083,1.2311530403036806,16.33219043743277,5.039744405076329,11.212623929022161,3.9976639805313097,9.378514844576582,3.1098391251435884,6.987037681775271,2.0994058172945937,5.180029993377971,0.0001650602409638859,9.40843373493564e-05,0.0002246385542170367,0.0001327349397589805,8.24337349397665e-05,7.65903614458083e-05,0.00010690361445784714
-2.6000000000000085,1.2149593930330789,15.65397344832037,4.958910742851195,11.087183986951622,3.91718080815006,11.450421668885605,2.9598540390647545,6.2635740118069885,1.4409889353500733,4.812251205859469,0.00010000000000003521,0.00012299999999985267,1.5000000000136161e-05,0.00014899999999994318,7.400000000002449e-05,7.899999999999403e-05,8.100000000001614e-05
-2.5900000000000087,1.2055192711515827,14.924610803412012,4.897705502823925,10.780749896288196,3.8148098320093733,13.588066243859856,2.840275539452068,5.66665409254801,0.9811507065406436,4.500816426179303,8.982035928140686e-05,0.00011162275449103781,0.00020841317365258232,0.00010229341317369506,4.2263473053935743e-05,6.642514970060791e-05,6.243712574852086e-05
-2.580000000000009,1.203919823308318,14.18459265910025,4.869970755259965,10.326404051609215,3.692515695092593,15.633544910048268,2.7401690938856076,5.240828144887297,0.7071552940648772,4.26582943776908,6.758682634731416e-05,9.016766467077025e-05,0.0004200059880237985,6.171257485036059e-05,2.3766467065882816e-05,7.064670658680092e-05,8.31976047903474e-05
-2.570000000000009,1.21141138691072,13.475268441919273,4.883056103031446,9.753626236568172,3.5547998482608274,17.42527368864372,2.649706638564908,5.004027169818959,0.5931212957198294,4.125563468756367,2.0880239521054537e-05,4.825149700602573e-05,0.0006685089820356997,3.356886227549963e-05,3.214970059881676e-05,0.00010897005988021801,0.00018379640718554644
-2.5600000000000094,1.2289903967648703,12.831494436833857,4.936546984875493,9.085179674885868,3.4073450691747778,18.838424033897724,2.561108637239952,4.9462352460098264,0.6035231900435091,4.092873316200123,4.118072289158931e-05,2.3265060240956363e-05,0.0008583614457829962,3.950602409635006e-05,9.026506024089793e-05,7.627710843379173e-05,0.00024106024096382016
-2.5500000000000096,1.2571216675416987,12.28090440479487,5.023093839487858,8.343396319211859,3.2564752197944475,19.801307931197048,2.4702868121564965,5.035482237639573,0.6996052058157401,4.173783447704541,9.59999999999918e-05,6.999999999993692e-06,0.0010179999999999326,6.299999999990336e-05,0.00017399999999990538,7.000000000040787e-06,0.0002759999999999605
-2.54000000000001,1.2955962925609312,11.838924604439539,5.130732014785406,7.557068887068416,3.108326994789026,20.310330646482623,2.377535919497406,5.2238565417157865,0.8436897862351328,4.365356210124339,0.00016546107784425778,4.005988023914478e-06,0.0009491377245509503,4.743113772457358e-05,0.00019316167664668786,5.0712574850265566e-05,0.0002783952095808342
-2.53000000000001,1.3435773854253656,11.505538007581004,5.246478389263999,6.766871134835408,2.9687322021539213,20.42468326223839,2.287413446547182,5.456059492633872,1.0030542903980113,4.655401460122942,0.0002070598802395257,4.7664670658424635e-06,0.0008024191616768825,3.976646706591686e-05,0.00019611976047908042,8.434730538922692e-05,0.00026656287425153843
-2.5200000000000102,1.399440322318057,11.266681334547417,5.359628977582015,6.030114902362913,2.8443804348133988,20.245898525597973,2.2080016921448364,5.67733608220083,1.151797263010143,5.021943056535033,0.00019208982035928828,1.314970059888444e-05,0.0004976287425152594,4.814970059882588e-05,0.0001661796407185973,9.752095808381723e-05,0.00022584431137728903
-2.5100000000000104,1.4610858814727035,11.09605430764945,5.4653318823266765,5.4113241638524325,2.7426739273559337,19.89144988406185,2.148385421120493,5.843159771412308,1.2730633797940494,5.436784656057852,0.00014167469879526444,1.8783132530146667e-05,0.0002786987951809017,4.026506024100401e-05,0.00016275903614456694,0.0001095542168674457,0.0001988795180723112
-2.5000000000000107,1.5257333484150302,10.963155421433623,5.564803607830376,4.9756245310863685,2.672535970109652,19.46832444256431,2.1167104232739784,5.924261112625759,1.3584294936117236,5.8666629572291775,7.300000000011845e-05,2.299999999987973e-05,0.0001040000000001792,2.4000000000041336e-05,0.00017299999999998168,0.00012099999999997004,0.0001790000000000198
-2.490000000000011,1.5899647371462204,10.841249666211198,5.663551860067425,4.7757898239129375,2.6436448424498864,19.05344860625766,2.118045649738543,5.909166589732288,1.4071304343564688,6.275917610000807,0.0001041377245509072,2.7191616766467225e-05,0.00025908982035910985,3.777245508982641e-05,9.695209580845797e-05,0.00014135928143707278,0.00017720359281437419
-2.480000000000011,1.6498806235975012,10.715562940320604,5.768022350207222,4.840929357530864,2.665012563011266,18.683180053910924,2.1531071317074644,5.802952963963903,1.424358877669409,6.62952448290013,0.00015780239520949942,3.197604790423945e-05,0.0003697185628742265,4.5616766467072006e-05,6.022754491012752e-05,0.00015717365269458272,0.0001825209580838109
-2.4700000000000113,1.7015371170120484,10.588754677392389,5.882540056598916,5.169024324648449,2.743349473263929,18.35439609288424,2.218095750776699,5.6236170392351434,1.4190190250158792,6.897194685985364,0.0002572035928142532,3.796407185624134e-05,0.00039007784431133874,4.142514970055102e-05,0.0001033413173652342,0.00016376047904194434,0.0002022814371257213
-2.4600000000000115,1.7413117655458188,10.482970283563974,6.006923581425705,5.722484500156188,2.8810883303486152,18.03787316823609,2.3051284902841647,5.39820806003328,1.401347995269568,7.056537832740802,0.0003474578313252088,3.165060240956152e-05,0.0002980000000001396,4.278313253003675e-05,0.00013032530120480514,0.0001397590361446491,0.0001998554216867602
-2.4500000000000117,1.7667637959810973,10.435785854812949,6.13696651078981,6.433218872908022,3.0756080211629038,17.69406215207532,2.4040080779375446,5.156206438648746,1.3806659140265924,7.097847842545044,0.0004329999999999407,1.899999999989146e-05,0.00014800000000011467,4.699999999990448e-05,0.0001489999999999659,0.0001000000000000243,0.0001860000000000179
-2.440000000000012,1.7767507859265974,10.492781649744023,6.265403797944895,7.210178785899809,3.318046819966055,17.29155301346113,2.5035363030284805,4.924870519864009,1.3637763915610415,7.023964976162941,0.0004838982035927521,6.0916167664654e-05,0.00022105389221545654,0.00011646107784422523,0.00010888023952099549,8.80239520957964e-05,0.00015605988023954906
-2.430000000000012,1.771515501516408,10.696610361952855,6.384405653715902,7.952789720987895,3.592814852387461,16.819354413674198,2.5930608193153715,4.725237925743875,1.3541712547809315,6.849182338962386,0.0005124670658682587,9.947305389227427e-05,0.00029924550898191793,0.00015114371257491873,7.547904191619527e-05,7.407185628742721e-05,0.00012157485029944061
-2.4200000000000124,1.752466663526195,11.076292023390636,6.487738341957856,8.566978110560166,3.877877277315081,16.292293404899436,2.663917381982764,4.5704612477368025,1.3521097656244616,6.5961379437337575,0.0004957005988024408,0.00013120958083829648,0.0003878682634730218,0.00011521556886237555,5.571856287426826e-05,5.610778443118885e-05,7.786227544914455e-05
-2.4100000000000126,1.7218414485755102,11.639821096308056,6.571439500700935,8.981909516414529,4.146579313553456,15.745977992750616,2.7108168614961157,4.465913700638183,1.3554057246817444,6.291833786686276,0.00045540963855429277,0.0001447831325300834,0.00040646987951810837,0.00012248192771083073,4.5024096385543354e-05,5.0397590361462467e-05,4.073493975907094e-05
-2.400000000000013,1.682642851575967,12.367624800518943,6.63234220855055,9.162225904642737,4.369558226968982,15.226139945199046,2.7326575247067044,4.410797741978428,1.3605465431205057,5.965611787649182,0.00040300000000004254,0.00014899999999995022,0.00038899999999993584,0.0001519999999998985,3.9000000000003794e-05,5.0999999999967094e-05,7.000000000036017e-06
-2.390000000000013,1.6383947539655943,13.216023490452304,6.666792316636444,9.11718922049931,4.520417738474989,14.770648400563594,2.733038476659647,4.39960515659142,1.363875141077108,5.64451912310971,0.00030120359281446754,0.00012983832335331647,0.00028600598802404543,9.211976047911064e-05,0.0001629520958082523,6.237724550896529e-05,2.67604790418977e-05
-2.380000000000013,1.593186052286518,14.118479552849122,6.6692831923311156,8.895160222904225,4.578827335601329,14.401630118464116,2.7193865588389636,4.425250773485783,1.3624480565682686,5.351801870257015,0.00019525748503005294,0.00010632934131743577,0.00018400000000012991,4.883832335335306e-05,0.00027109580838315556,8.422754491013781e-05,5.64011976047369e-05
-2.3700000000000134,1.5514292950827075,14.99165290525751,6.633057005770651,8.571096069268316,4.534169058473824,14.122444191561918,2.7016184221199815,4.481150099036065,1.3544360356074114,5.103755652100725,8.088622754502849e-05,7.39940119761203e-05,8.400000000011607e-05,3.9257485029990476e-05,0.00034714371257476293,0.00012734131736520294,0.00010610179640712211
-2.3600000000000136,1.5174743822149919,15.743669084695112,6.551944572670044,8.228039608830015,4.386987175402373,13.922017807705902,2.690385583435565,4.561963269342046,1.3390738710873906,4.907356529341719,6.426506024091012e-05,5.4253012048213085e-05,4.204819277108532e-05,8.848192771079242e-05,0.00037180722891566197,0.00018454216867462854,0.00015997590361438712
-2.350000000000014,1.4952954738206685,16.28132486569354,6.423612538985189,7.940112287744315,4.149306283922884,13.78394760377804,2.6953292592066993,4.662072981489701,1.3164640696153482,4.760659802972786,9.799999999994504e-05,4.099999999997422e-05,2.9999999999989474e-05,0.0001679999999999581,0.00036999999999999756,0.0002489999999999746,0.00021599999999993472
-2.340000000000014,1.4878385635416045,16.527266845499312,6.251635434992613,7.7560643109273535,3.8415760083904122,13.69413876625433,2.723308949050355,4.773852713774291,1.2871788178447066,4.65377718377348,0.0001554850299400245,4.818562874247074e-05,8.508982035917433e-05,0.00013386826347310362,0.00034125748502997655,0.0002430119760478941,0.00025372455089815607
-2.3300000000000143,1.4968092990720125,16.430917027576406,6.046651679837433,7.693546507427705,3.4898644215960495,13.648920374547298,2.777026936879705,4.885564152354979,1.2520647803909624,4.573996696761902,0.00019380239520955887,5.8137724550863726e-05,0.0001391916167663882,0.00013846706586812712,0.000349467065868155,0.0002421616766466529,0.000265760479041967
-2.3200000000000145,1.5224112634995417,15.982998958448134,5.825091113162862,7.73985854637578,3.121948553624272,13.660929532535746,2.8541609024534087,4.981338713880396,1.2120418332698377,4.510656965705877,0.00019320359281436533,7.370658682636116e-05,0.00019128742514972207,0.00022170059880225645,0.000432700598802276,0.00025174251497008193,0.00022564071856292773
-2.3100000000000147,1.5632796662792765,15.2242839752834,5.606388175156919,7.860492736998275,2.7637244466034985,13.764099438403196,2.9473589468183703,5.043224104524237,1.167971737823561,4.459111009154276,0.00013137349397604643,0.00010285542168672821,0.00025949397590354197,0.0002014939759036616,0.00041130120481938095,0.00023671084337355247,0.00017104819277117053
-2.300000000000015,1.61661321180156,14.242930999579663,5.409724079046328,8.012668152138781,2.436065453382074,14.015147927165895,3.0451965676046684,5.054674729998001,1.120564150507623,4.422353556214145,3.800000000017068e-05,0.00013899999999994887,0.0003359999999997832,0.0001280000000000104,0.00033600000000012385,0.0002089999999999986,0.00010900000000008964
-2.290000000000015,1.6781760440446674,13.165754150752553,5.252626147284959,8.159123396923839,2.1542345731787877,14.486539618894335,3.133416614535618,5.004277742719109,1.0706758479269463,4.410742958016942,9.368862275445399e-05,0.00012941916167665126,0.0003377964071856362,0.0001585389221554977,0.000295880239521018,0.0001622934131736995,4.9718562874337906e-05
-2.2800000000000153,1.743002760271644,12.131761254314648,5.148800611357379,8.280227992716542,1.9251590317454812,15.254174665394798,3.197713126301539,4.888822607565634,1.0193035688431393,4.440116811801101,0.00015807185628732896,0.00010877245508987623,0.0003044191616768622,0.00015331137724551564,0.00026979041916166534,0.00011657485029947124,3.252694610768305e-05
-2.2700000000000156,1.8056574957456748,11.273687433961335,5.1084614585288115,8.377976563858143,1.749263646790013,16.37754386093024,3.225592603641128,4.714797898046695,0.9681421697488568,4.529763237564106,0.00024010778443097147,6.56586826348111e-05,0.00019962874251510063,7.546706586849383e-05,0.000272185628742506,7.286227544921257e-05,0.0001007904191615739
-2.2600000000000158,1.860796819229611,10.697667074096692,5.137215132117457,8.473861861716461,1.6216447367472624,17.880960432469983,3.208442987236027,4.498238585799841,0.9198648497864782,4.699894445335612,0.0003447349397588341,4.861445783137385e-05,0.00011549397590368833,4.97951807230562e-05,0.00019069879518091257,7.231325301206475e-05,0.00011167469879521032
-2.250000000000016,1.9037929310664914,10.469410456090031,5.2348811224393605,8.601250719845732,1.534115468001922,19.743316226068234,3.1429282183456038,4.26269661443101,0.8782407505098828,4.969121492782755,0.0004609999999998588,4.500000000007854e-05,4.200000000010399e-05,5.100000000013235e-05,6.600000000019597e-05,9.400000000000383e-05,9.300000000003006e-05
-2.240000000000016,1.9311448516327998,10.607808777077743,5.394060189111293,8.794309932129828,1.477673988190049,21.88943684193362,3.032048286311074,4.03715565012533,0.8481738725188784,5.350230438357813,0.0005843532934129745,0.00010727544910169701,0.00014199999999984044,8.333532934133155e-05,0.00023905389221527372,0.00012513772455088385,6.425748502998698e-05
-2.2300000000000164,1.9411165618464057,11.084231739266,5.6009704955610005,9.078672645265032,1.443756581026751,24.21268063465115,2.884473284832105,3.850434872446256,0.8350148225907154,5.849220397915419,0.0006940718562872727,0.00016698203592802047,0.00020208383233537744,0.00012614371257475937,0.00037317964071845893,0.00014185029940123287,5.112574850296313e-05
-2.2200000000000166,1.9336345469927991,11.832145220442658,5.836760948933005,9.463886085666617,1.4257362405686451,26.587214376520336,2.7135708894564976,3.727634935816416,0.8440480689157429,6.462730048358426,0.000776107784431015,0.00022147305389212852,0.0001811257485030384,0.00019021556886216352,0.00042826946107776056,0.00012927544910176962,6.96886227544597e-05
-2.210000000000017,1.9101407188705277,12.761016475531454,6.080101886474103,9.940937922343466,1.4192955828673657,28.890547938924684,2.535613561122721,3.6862040043979176,0.8796399552376211,7.177391236638597,0.0008218915662650288,0.00027459036144569717,0.00014497590361453933,0.00019410843373498805,0.000483180722891488,9.319277108440119e-05,5.93012048193173e-05
-2.200000000000017,1.8732282396348714,13.77313414662168,6.3098167461925385,10.484482994101192,1.4223634648252375,31.0194263675658,2.3678416225343706,3.7338527217086144,0.9444819693024121,7.969329122948723,0.0008489999999999502,0.0003269999999998917,0.00010100000000008023,0.00016700000000006675,0.000537999999999919,4.5000000000141254e-05,3.40000000000357e-05
-2.1900000000000173,1.8261969105114757,14.779857489134862,6.507302462043715,11.059018730014321,1.4346925273250972,32.90033782210696,2.226539923591707,3.868534889351914,1.039113899593464,8.805240329507216,0.0008274431137724867,0.00036592215568858797,0.0001141736526946558,0.00010652095808393776,0.0004918922155689297,6.655688622757469e-05,1.7832335329364985e-05
-2.1800000000000175,1.772934772275564,15.708494534996303,6.6575469146758275,11.622718399127823,1.4571892283218293,34.48736373744596,2.1260803746017842,4.079373610891356,1.1611500300014106,9.640819185394257,0.0007604371257487496,0.0003811317365270266,0.00015797604790408244,6.738323353293431e-05,0.00043708982035939,9.028742514969399e-05,1.213772455087561e-05
-2.1700000000000177,1.7174293381659784,16.51358458302577,6.751504698367755,12.135656244846668,1.491383556714182,35.778829363477,2.0768567161900835,4.3502191167354125,1.3057217535071026,10.429739780017982,0.0006011556886230129,0.00034819760479041785,0.00026396407185603165,7.157485029938882e-05,0.00036463473053902697,0.00011843113772448846,2.7706586826324223e-05
-2.160000000000018,1.6638017615127394,17.1717401180277,6.785630625885425,12.561131008481784,1.5388877760834323,36.814164335857356,2.084959873955351,4.662193270909611,1.4651697720270724,11.1260104970002,0.00041221686747018105,0.00029962650602417807,0.0003449277108432238,5.4710843373530555e-05,0.00027837349397604084,0.00012124096385542543,3.180722891566595e-05
-2.150000000000018,1.6160596792841038,17.677410600850486,6.761638677074103,12.869620891277142,1.6010333326068733,37.675042965654185,2.1514087672148725,4.99622266708759,1.629229605404197,11.690978543943986,0.00020800000000025697,0.00024300000000019477,0.00041299999999999887,2.700000000004355e-05,0.00018500000000014,0.00011100000000004411,3.0000000000003402e-05
-2.1400000000000183,1.5778182579993576,18.037788179836372,6.685430242212756,13.041748653367966,1.6785798465222286,38.4736448474755,2.2719077090829556,5.33433473894043,1.7851845898334124,12.098052390004687,0.00021039520958076729,0.00017413772455099593,0.00033515568862294443,4.6760479041853114e-05,8.679640718579763e-05,8.405389221563018e-05,0.00015335329341297188
-2.1300000000000185,1.5519857983841652,18.271572503685345,6.565558375939672,13.069747484731106,1.7715436622238148,39.32950844186747,2.437160486679758,5.659976896944249,1.9184158220190688,12.335290936451747,0.0002809640718558945,0.00011397005988025141,0.00025118562874267095,8.845508982019355e-05,2.218562874252845e-05,5.8688622754536474e-05,0.0002524011976047069
-2.1200000000000188,1.540612849633875,18.410831853027805,6.412432061325383,12.957080836317267,1.8785435996460211,40.33564494567273,2.6326372980293677,5.9558201048005985,2.012927054550344,12.40551921467263,0.0004899461077840911,7.145508982047953e-05,0.0001547784431138184,0.00017468263473045679,2.5778443113781107e-05,3.653293413177713e-05,0.00030210179640710247
-2.110000000000019,1.5446251116349423,18.506974882818973,6.236916364702867,12.716675315532777,1.9970831517819723,41.53631249615776,2.8405493639648824,6.204764533532631,2.053991568229007,12.327797817645418,0.0006361445783130655,4.1493975903735424e-05,0.00012199999999984446,0.00017855421686756003,3.455421686745419e-05,8.824096385527159e-05,0.0003237710843373384
-2.100000000000019,1.564010571430376,18.632436163294038,6.051054056367391,12.368634399967382,2.1229568312059905,42.90818069215588,3.04092707759289,6.3885196618451925,2.03014639868324,12.135797136701116,0.0007499999999997707,1.8000000000115248e-05,0.00012199999999984446,0.00013999999999998644,4.5999999999970164e-05,0.00017799999999985205,0.0003309999999999886
-2.0900000000000194,1.5979844823198275,18.878065623908718,5.868983392526399,11.939061067212357,2.2502299271194897,44.36125814840557,3.214356360693097,6.489115521657424,1.9363231727337913,11.876684697674822,0.0007511976047904243,8.207185628736386e-05,0.00016511377245496595,0.00010407185628750508,4.300598802396162e-05,0.00025644311377232015,0.00022141916167684253
-2.0800000000000196,1.6452940835177507,19.34398040129084,5.707902435997379,11.458146067436154,2.3713719689801356,45.75316081202059,3.3453597137959137,6.491045045063716,1.7765287347118124,11.60735146657214,0.000708922155688883,0.00014061077844303483,0.0001768083832336664,6.992215568873236e-05,5.384431137718361e-05,0.0003147305389221277,0.00013555089820365947
-2.07000000000002,1.7042576272834131,20.12244456248008,5.588801887266034,10.959546175366013,2.476944053355308,46.901626765488274,3.4252905371439546,6.384197878592955,1.5667472693908295,11.388947998512164,0.0005783832335331675,0.00018791616766448797,0.00012471257485046548,3.9383233532964274e-05,9.276646706579423e-05,0.0003320958083832058,9.782634730546292e-05
-2.06000000000002,1.7732038131634644,21.283762034075416,5.53372772706048,10.474237797735631,2.5568748847867013,47.61139034081055,3.455620300686118,6.1668865630524605,1.3349857253824666,11.276687857839581,0.0004226746987954807,0.00020996385542162367,8.393975903628955e-05,2.104819277104512e-05,9.009638554221031e-05,0.0002994337349398701,8.500000000000383e-05
-2.0500000000000203,1.850286278885032,22.860186017663526,5.5629364772559935,10.029305661144601,2.601216414613728,47.69257974644707,3.4479156163735847,5.848397455836089,1.121226447688951,11.312923186959262,0.00025400000000030606,0.0002190000000000626,4.900000000014503e-05,8.999999999949275e-06,6.60000000000437e-05,0.0002410000000001054,8.500000000000174e-05
-2.0400000000000205,1.933352702208441,24.836730581197067,5.6904808498624515,9.644696264100865,2.602331233343839,46.99981778194377,3.4221362275548013,5.450943819478318,0.9744838873825495,11.520851944141173,0.0001300479041918981,0.00017708383233541763,7.355089820352905e-05,3.474850299396221e-05,3.186826347311736e-05,0.00015896407185644255,6.88323353293756e-05
-2.0300000000000207,2.019740763618753,27.147359444901266,5.920734002221055,9.33081328308179,2.5573257388912984,45.479519933179,3.40295630762539,5.010003756574927,0.9476818484740556,11.90128429905534,7.268862275441262e-05,0.00012311377245522614,9.355688622748312e-05,4.9035928143785204e-05,3.132934131722165e-05,8.404191616778702e-05,5.9185628742509354e-05
-2.020000000000021,2.106304741152801,29.679160346428482,6.247110900769802,9.086053711381746,2.469859819223067,43.208149872517765,3.4155048005606545,4.571566015122353,1.090913356406718,12.433273797650898,0.00015053293413166708,4.4670658682844586e-05,0.00010433532934136575,4.005389221564941e-05,9.899401197589508e-05,2.3562874251643846e-05,6.277844311376408e-05
-2.010000000000021,2.1891883029734767,32.26913915589701,6.650948387827904,8.89665166015866,2.3510119713497186,40.41690474863765,3.4813467693865903,4.188597633895492,1.442755612590892,13.075467689273307,0.00023186746987938287,2.1578313253044722e-05,0.00010800000000001973,2.904819277112214e-05,0.0001172289156626607,1.8506024096371747e-05,4.0144578313326115e-05
-2.0000000000000213,2.2645682947426256,34.733595454965624,7.105380282200896,8.737498491375447,2.2173551164141805,37.45267318253147,3.6154041331291626,3.9113354068591537,2.023377846951072,13.775959958570473,0.000314999999999777,2.699999999998769e-05,0.00010799999999988596,1.6999999999959417e-05,0.00011000000000002827,4.199999999999192e-05,4.000000000074108e-06
-1.9900000000000215,2.3286151970518776,36.87896445929886,7.577326584127111,8.57942189184833,2.088566160558721,34.725768447044175,3.8238047118341263,3.7822340179319474,2.827978426430526,14.478082509578618,0.0003419461077843374,5.574251497002572e-05,0.00010740119760479342,8.616766467042587e-06,8.664670658688298e-05,5.038323353289991e-05,2.2562874251451715e-05
-1.9800000000000217,2.378011079122288,38.53007871079411,8.031922710631104,8.39724172124621,1.9843026849300407,32.632028397482856,4.102824738269883,3.8302680509328972,3.823355346984238,15.128105787958427,0.00035189820359284805,7.361676646712642e-05,0.00011786826347304436,3.790419161669367e-06,7.317365269459738e-05,5.343113772452684e-05,3.499999999999337e-05
-1.970000000000022,2.4103905174348403,39.55746020903938,8.436780901872076,8.176905729767752,1.9215370902098976,31.48311056822073,4.439005145339319,4.068139080982259,4.948174385869678,15.68014069262368,0.00032734730538928127,6.942514970067191e-05,0.00015080239520952012,6.185628742576492e-06,7.976047904190084e-05,4.5646706586844607e-05,3.499999999999337e-05
-1.9600000000000222,2.4246801411275696,39.90138027694043,8.76569397048691,7.918657925934841,1.9125511207303314,31.457748370501008,4.810771725650369,4.492655694432215,6.118757414763958,16.098000963243184,0.000301903614457894,5.845783132534622e-05,0.00016398795180718687,1.415662650607643e-05,8.875903614455104e-05,3.067469879521226e-05,3.340963855421928e-05
-1.9500000000000224,2.4212639690318465,39.58479937675504,8.999219126302814,7.636794602553599,1.9635295658616772,32.579548206304715,5.189163090728742,5.085185777067518,7.233325515723491,16.352712058448834,0.0002760000000000491,4.399999999996123e-05,0.00016699999999991133,2.500000000003157e-05,9.899999999996798e-05,1.199999999999298e-05,3.100000000000796e-05
-1.9400000000000226,2.402155460284388,38.71239652284015,9.126816276599488,7.3527616507625275,2.073899620808479,34.72755372236225,5.543106590439296,5.8185524684246674,8.191629630983552,16.42378112391206,0.00018019161676669285,2.2443113772475783e-05,9.45449101798121e-05,4.5359281437125216e-05,7.804191616770653e-05,1.1999999999989731e-05,2.8005988023958293e-05
-1.9300000000000228,2.3709132049975197,37.45021858616463,9.144690761110574,7.089120790052096,2.2367312664549055,37.676504522486425,5.841353720845874,6.6608545007737705,8.904346179225715,16.298147990565624,9.801796407200316e-05,1.531137724548512e-05,5.410179640720737e-05,5.9395209580856586e-05,7.980838323344149e-05,1.0221556886243146e-05,2.2838323353310552e-05
-1.920000000000023,2.332486661577226,36.00050729055144,9.055621333104797,6.862769241921341,2.4397852002244904,41.151047362887475,6.056395944822577,7.5808359480114875,9.307466217222215,15.97423508176497,4.352694610786187e-05,3.746706586827771e-05,7.865269461070763e-05,6.059281437124367e-05,0.0001277125748501962,4.832335329335074e-06,1.3257485029956283e-05
-1.9100000000000232,2.292688349425441,34.574269546425704,8.868710887576636,6.680173931515979,2.6673238067438816,44.88142336892522,6.1678835958964635,8.551997977568952,9.371578627436882,15.46592887442329,3.1759036144516476e-05,5.136144578310326e-05,0.0001036987951806571,4.0722891566297665e-05,0.00012650602409643679,2.248192771076547e-05,1.1987951807220742e-05
-1.9000000000000234,2.2574130039731948,33.37377586650857,8.600244923852149,6.53636480493596,2.9009704635621367,48.620903171754065,6.164932423574169,9.548806139354337,9.105190339767397,14.807854785331775,4.199999999996466e-05,6.099999999984617e-05,0.0001289999999999918,1.0000000000019976e-05,0.00010000000000005936,5.199999999993357e-05,1.4999999999994703e-05
-1.8900000000000237,2.2311331860067,32.563148763840665,8.27214823667301,6.41530775393409,3.1229468856203986,52.178469997996565,6.0480951289572555,10.549887516833028,8.551268375439872,14.052199871945259,5.277844311374642e-05,7.237724550895187e-05,0.00012301197604792366,2.197604790419867e-05,8.203592814374464e-05,5.679041916166757e-05,7.814371257502815e-06
-1.8800000000000239,2.2159705227545667,32.25568391648739,7.911945307614649,6.294655851577175,3.316904664601913,55.400760902481224,5.828569401464874,11.529982435901701,7.777220468875831,13.266474171084528,4.972455089827708e-05,7.624550898212068e-05,0.00011840718562870964,3.4149700598826086e-05,6.0119760479098156e-05,5.170059880245753e-05,1.9005988023848268e-05
-1.870000000000024,2.2111940301089215,32.49929394571137,7.551389194677419,6.15131047887598,3.46964634314994,58.171839681388356,5.526917598561328,12.456665918633128,6.863027733477024,12.52509713115992,1.8586826347381934e-05,6.486826347307776e-05,0.0001166107784430293,4.6724550898123135e-05,3.0179640718631644e-05,2.6550898203664e-05,6.750898203582147e-05
-1.8600000000000243,2.2135648707547135,33.27433797596343,7.224265976203655,5.9679159112680855,3.5723017743626406,60.41422637485073,5.170887123972539,13.288001888530417,5.8896821655404095,11.899285107334862,2.9469879518006034e-05,5.225301204821384e-05,0.00013031325301199564,3.3506024096340294e-05,2.6361445783112156e-05,1.6012048192782883e-05,7.843373493978159e-05
-1.8500000000000245,2.218281632245437,34.50614200385276,6.963099128934176,5.738101123791237,3.6211236080827605,62.09384656560791,4.792318132713733,13.974475609171245,4.929126377948307,11.446370372184944,6.199999999993137e-05,3.900000000004185e-05,0.00015200000000010192,6.999999999929433e-06,3.599999999997211e-05,1.2999999999992201e-05,7.000000000002703e-05
-1.8400000000000247,2.220084348192078,36.08116766773555,6.796503321110176,5.47048993802911,3.617705597320078,63.21409948900603,4.4254345502639705,14.462167745247998,4.042002460425216,11.203468758833079,9.134131736522002e-05,1.923952095810494e-05,0.00016577245508980434,4.604790419033109e-06,2.761676646707978e-05,5.13233532932972e-05,0.00010413173652686637
-1.830000000000025,2.2142811111455116,37.88061641996042,6.743778922380858,5.187369042286403,3.569292774714437,63.824236640036546,4.100980496186638,14.706543528048641,3.268797761244972,11.181575214360086,0.00011020958083834502,1.9239520957925016e-05,0.00017381437125742855,2.4071856286378268e-06,2.1604790419158367e-05,7.285029940120571e-05,0.00012937125748500907
-1.8200000000000252,2.197535784184477,39.79867884072346,6.81275755426829,4.922557970530247,3.488338740584435,64.014633019296,3.8444811597421493,14.680671955725451,2.6334173615072896,11.369670919686564,0.00010781437125747113,5.9359281436922716e-05,0.00017022155688620083,6.107784430904436e-07,2.0407185628738044e-05,6.027544910184218e-05,0.00013655688622752685
-1.8100000000000254,2.168536710998422,41.75653026183807,6.99740511233822,4.715348491754241,3.3920395758301893,63.921381640363414,3.6733749476288287,14.385189831835921,2.1438952220959338,11.739915916473716,0.00011813253012042011,6.822891566263049e-05,0.00016224096385544776,3.180722891601819e-06,6.254216867453757e-05,7.230120481922824e-05,0.00018671084337331574
-1.8000000000000256,2.1283832204740705,43.70352699112104,7.278007272415844,4.602666697617512,3.3008453336282777,63.715602508829704,3.5955260521310155,13.851288128416734,1.7950519591897758,12.255411007504605,0.00013499999999995428,6.100000000010674e-05,0.00015200000000006647,8.000000000107037e-06,0.0001269999999998418,9.699999999992457e-05,0.0002589999999998156
-1.7900000000000258,2.080867006699642,45.5969701716422,7.622133032366018,4.611383608766745,3.2360530840087467,63.575217920568164,3.609136048599336,13.139650884152951,1.5732062535363263,12.874814443122904,0.00011883233532937872,6.938323353297693e-05,0.00018972455089817072,1.937724550893421e-05,0.00020963473053872407,0.00014490419161664652,0.0002727724550897865
-1.780000000000026,2.0319715634382844,47.39782195016311,7.990515956979961,4.751179065632165,3.2153853456398553,63.6446531982885,3.7032969353942136,12.327536717904845,1.4575198581501092,13.560859488444864,0.00010819760479042031,6.43293413174733e-05,0.00023456287425139237,3.865868263455684e-05,0.0002476107784432569,0.0001912275449100835,0.00025967065868280853
-1.7700000000000262,1.9893331737658915,49.052062758067194,8.341225928190706,5.011728317683549,3.2494770374576434,64.00036246772073,3.8606115614997902,11.49773553888836,1.424422605741358,14.281516287553362,0.00010879640718564709,3.199401197609134e-05,0.00029384431137704874,7.398802395200621e-05,0.00019491616766479592,0.00023434131736518188,0.00019200598802411847
-1.7600000000000264,1.9609348917534846,50.49081279712491,8.63534882283951,5.363172131037447,3.3390102183091193,64.63138842275218,4.060035009359637,10.725762245069944,1.4495091526258388,15.01138093031141,0.0001026385542169121,1.980722891561496e-05,0.0003227469879517288,9.156626506023286e-05,0.00015314457831333968,0.00029909638554196966,0.00013679518072301993
-1.7500000000000266,1.9534150573065088,51.63508024174775,8.842120466909398,5.761083286687113,3.4740563812691176,65.44682216513947,4.280073450389645,10.07170344761851,1.509363840447793,15.731504712394905,9.300000000003542e-05,1.7999999999967305e-05,0.00033599999999996767,9.999999999996652e-05,0.00011700000000010229,0.0003749999999997565,8.800000000014864e-05
-1.7400000000000269,1.9705809533788172,52.40377749333729,8.943288552801143,6.155366105810638,3.636161733205683,66.3095445039679,4.502002025934745,9.577186073407114,1.583103195252567,16.42933199485199,6.904790419166711e-05,2.7580838323366025e-05,0.00026534131736542544,9.580838323361212e-05,8.526347305397693e-05,0.0002767964071858869,0.00013530538922142883
-1.730000000000027,2.0125325208483744,52.718707173132714,8.935264642140577,6.498963758815207,3.8019362993396153,67.07639575621732,4.711292364319042,9.269026878192443,1.6532859004035672,17.09449996799533,4.983832335329708e-05,3.1431137724631644e-05,0.00019448502994028034,8.687425149713283e-05,5.510778443120788e-05,0.00022147305389214528,0.00016186227544913394
-1.7200000000000273,2.0759557122568655,52.516654847713255,8.829289521845249,6.759879887738486,3.94965574524055,67.6412113464835,4.9000561703928724,9.160434303731321,1.7073807961038454,17.72077100792051,4.025748502996774e-05,2.3646706586816445e-05,0.00012322754491042072,6.83113772455015e-05,2.816167664678386e-05,0.0002532095808382506,0.00014629341317369467
-1.7100000000000275,2.1551264338702865,51.75592992121415,8.648112852696077,6.925674164118473,4.063762462026938,67.9517958014596,5.065955356248475,9.256872653119462,1.7380767976025453,18.299986180524396,3.0638554216895955e-05,3.093975903606329e-05,6.719277108450479e-05,6.160240963852813e-05,1.820481927711596e-05,0.00035186746987916727,9.72650602411425e-05
-1.7000000000000277,2.2434835620126763,50.43141144629611,8.42216969096718,7.004812049241085,4.137838314308858,68.01242694894553,5.211300291752774,9.555990605470031,1.7433290378595752,18.819360448695267,2.1000000000017217e-05,4.599999999995304e-05,1.9000000000111105e-05,6.100000000009026e-05,1.700000000000612e-05,0.00048499999999965433,3.1000000000168046e-05
-1.690000000000028,2.335287688604077,48.5857751131965,8.184688140338682,7.023243030774964,4.174314836538726,67.87322856685458,5.341387164355317,10.044645872896401,1.7256008420966138,19.260057285691452,1.3814371257522422e-05,7.773652694600025e-05,0.00012139520958052459,2.80658682636949e-05,0.00011460479041892526,0.00041613772455105464,1.423353293416874e-05
-1.6800000000000281,2.427028410637437,46.30706913549482,7.966057704292984,7.018747649319059,4.181971748698472,67.61581028783823,5.462805295026827,10.69522086382588,1.6904577733033375,19.599489031970847,1.8485029940070812e-05,9.880239520955885e-05,0.00018802395209576703,1.0347305389353895e-05,0.0002829520958075949,0.0003263293413176952,3.1976047904042133e-06
-1.6700000000000284,2.517819161194377,43.72888821185328,7.789821147811502,7.034712599458096,4.172816233664128,67.34266613795255,5.581202029521901,11.459724672822064,1.6450952381437598,19.814762930202015,4.722754491009207e-05,9.820359281439854e-05,0.00018203592814376515,2.3520958083944203e-05,0.0005949281437117565,0.00019399401197641572,3.7964071856060647e-06
-1.6600000000000286,2.6100555178766554,41.004504937252264,7.668192523654297,7.113741097939411,4.1595774049619125,67.16646826821702,5.70068581101363,12.274071583626572,1.5965968812424234,19.890087789705447,8.165060240951704e-05,6.181927710859468e-05,0.0002006746987951442,2.4024096385626787e-05,0.0008111325301200405,0.00022175903614432302,6.999999999973062e-05
-1.6500000000000288,2.7084387914201407,38.30511017335415,7.602493109629916,7.291641150201763,4.154098778471758,67.20161418775601,5.822802715544547,13.060645381211945,1.5509197347216654,19.81930753691673,0.00011899999999988072,7.000000000125314e-06,0.00023199999999992652,1.7999999999978543e-05,0.000977999999999576,0.000331999999999733,0.0001699999999997509
-1.640000000000029,2.818903644816455,35.80830288651683,7.585656033529072,7.592089452349785,4.166525771736038,67.55168869387553,5.9468361801831575,13.739026838294146,1.5122010074179026,19.608636105169122,0.00015313173652685186,2.7958083832328902e-05,0.0005092455089812933,5.0934131736350504e-05,0.0005324910179652798,0.0001954730538925901,9.694610778463052e-05
-1.6300000000000292,2.947342613179767,33.68585652332887,7.607596923220818,8.023508151336838,4.205118893181672,68.29998216088731,6.070629637437893,14.240098826441919,1.4825190876667749,19.27776611769723,0.00018508982035921395,4.8125748502997685e-05,0.0006481676646710383,6.114371257488093e-05,0.00019151497006022797,0.00015873652694564847,6.104191616754875e-05
-1.6200000000000294,3.0975984133480243,32.101688444287646,7.660893039855679,8.576482700723918,4.276383803370832,69.50095868738885,6.191004301632006,14.51759805184763,1.4621573036278979,18.86226784750199,0.00021263473053884812,6.66886227543631e-05,0.0005062514970063464,2.5215568862470694e-05,6.277245509016794e-05,0.00032460479041869695,0.00010056287425137784
-1.6100000000000296,3.2707273118979625,31.190031527276787,7.744442042683094,9.229155741874397,4.3858091701575335,71.1795951351558,6.305096203248519,14.55970981808064,1.4498307907948842,18.411496809621593,0.0002470481927709922,6.743373493976613e-05,0.003950831325286377,1.4192771084385948e-05,0.0005935180722867136,0.0006593132530108635,0.0038179518072132142
-1.6000000000000298,3.463186241509775,31.054356232331788,7.863137519962313,9.951652801091317,4.537932113454577,73.31848926705891,6.409682468706856,14.387151599811563,1.4433101769402754,17.98759916713507,0.00028499999999992735,5.900000000016624e-05,0.009242999999984961,1.5999999999899843e-05,0.001463999999997519,0.0010809999999988,0.009429999999984057
-1.59000000000003,3.666278027562678,31.75193129389703,8.024897781879046,10.714502177557828,4.735748105867246,75.84420479740197,6.500556482647666,14.045975857491372,1.4398731644473022,17.660108118856584,0.00030775449101789023,4.5826347305389964e-05,0.004219646706601338,4.055089820346843e-05,0.001404718562874422,0.000815131736527692,0.013529999999988223
-1.5800000000000303,3.8666689576343667,33.27991486751028,8.237448585383067,11.496589537465209,4.979395053203267,78.61716774019679,6.572013546349101,13.595835042653686,1.4367936895465137,17.49784770784106,0.00031964071856286817,4.233532934111298e-05,0.0025901556886076017,4.988622754496134e-05,0.00127923952095884,0.0016206766466979148,0.014378413173669403
-1.5700000000000305,4.048532237267531,35.566996463631796,8.506942001585125,12.29065160914854,5.264990826877134,81.4359149292532,6.617527078272978,13.098070395677082,1.4318095302812788,17.55847277029985,0.000309461077844312,5.850299401177072e-05,0.007851233532918793,2.8329341317462018e-05,0.0010193592814378796,0.004601514970051156,0.008625119760495934
-1.5600000000000307,4.196069325473168,38.45905604902374,8.83682807267959,13.098969485551374,5.582276024200053,84.0409428348843,6.6316217328688065,12.608647906544446,1.4235139385619513,17.877476860232576,0.00020819277108474163,0.00010216867469859155,0.012747566265046258,2.3385542168693018e-05,0.000758048192771866,0.00415703614458492,0.00745583132529767
-1.550000000000031,4.298429387897167,41.741298808152465,9.229932967233918,13.93127445874571,5.915733890461306,86.1592328767052,6.612745494516933,12.168825596750088,1.4115067785457664,18.46123393579729,6.000000000039649e-05,0.00015999999999998538,0.017455999999985698,2.699999999998833e-05,0.0004960000000008156,0.001948000000006704,0.008647999999996417
-1.5400000000000311,4.352184236714608,45.15398530907146,9.686549515890562,14.792134236748185,6.243664486018353,87.52752762900013,6.5649823630314454,11.803953908936435,1.3963513118614312,19.28371543344928,9.892215568850854e-05,9.89221556888083e-05,0.007947017964100777,3.538323353294943e-05,0.0020001916167618943,0.005874946107772456,0.008748598802394921
-1.5300000000000313,4.363055299550632,48.42981533623729,10.201847887028366,15.6742412594785,6.539642955126805,87.93120604729296,6.498404905785397,11.522855977483744,1.3793101980725897,20.286732893159915,0.00012025748502999946,6.412574850285086e-05,0.001294215568864832,4.57425149700891e-05,0.0024610299401248746,0.007333610778454054,0.0075301856287545346
-1.5200000000000315,4.344986214818552,51.329187605202634,10.762191491722534,16.555582445748122,6.774762461191184,87.23238641090242,6.427457704008673,11.320520652410128,1.3620201104385268,21.38381310134949,0.00010588622754488912,8.268862275441572e-05,0.0004403233532960396,6.0113772455132965e-05,0.0008035449101847936,0.00378091616767574,0.003633778443125896
-1.5100000000000318,4.316777772089988,53.66911536042523,11.34241689497483,17.401304712645583,6.920790102338366,85.38362756128909,6.3680678491777565,11.182556077820303,1.3462245011440568,22.469199517140247,0.0001391686746986019,0.00011683132530103925,0.00038378313252900037,6.659036144586988e-05,0.0010168915662613553,0.0027698072289147183,0.0024235060240958345
-1.500000000000032,4.297799854322637,55.3343026093767,11.901977787540421,18.16222952380381,6.953435796441064,82.4436059104944,6.334977470195936,11.090660000684784,1.3337035433126143,23.425119718305485,0.00019699999999992884,0.0001589999999997744,0.0007379999999988838,6.900000000008906e-05,0.0021939999999962658,0.0030679999999990064,0.0025969999999994474
-1.4900000000000322,4.303967342222541,56.30806456287247,12.390445101531661,18.78048173675607,6.857473566684396,78.56223395553774,6.339232116567455,11.0259391240924,1.326119013868307,24.14155549606144,0.00021855688622747767,0.00018115568862269745,0.0012637485029923584,0.00010432934131723374,0.003937712574844665,0.0012739880239578478,0.001694005988026872
-1.4800000000000324,4.345554868064974,56.67431563363354,12.751280066399723,19.186658432985233,6.629599656069834,73.96683405692671,6.3872727994934095,10.971455989334805,1.32500147920736,24.524017313406848,0.00021778443113782572,0.00018117964071876297,0.0014721437125763206,0.00011891017964076006,0.0046062574850348524,0.0001565748502985347,0.0010577784431140891
-1.4700000000000326,4.426445769399314,56.61685736511892,12.93150160568718,19.30515979498978,6.280055689326593,68.92904227373094,6.480365850315191,10.911653610151406,1.3315982015213723,24.505239346377742,0.00017167664670675965,0.000136269461077951,0.0010362155688637222,9.136526946125884e-05,0.0030918862275498833,0.000412862275448251,0.0009631676646709834
-1.4600000000000328,4.544635451841715,56.38898249175375,12.891289457390261,19.063891995433984,5.830665214403595,63.72762396193388,6.614630620994708,10.830979512151215,1.3467891958491425,24.05405564277881,0.00018025301204811173,8.243373493991077e-05,0.001181819277107032,7.881927710849516e-05,0.0018613373494010567,0.0003604457831331867,0.0005835060240980798
-1.450000000000033,4.692745480908171,56.25909645930882,12.612624303439981,18.410365708692655,5.31314672377645,58.64526527925221,6.7807438113547995,10.714094496974209,1.371014569068247,23.18560046512375,0.00021699999999991176,2.400000000020047e-05,0.0016269999999987007,7.399999999992203e-05,0.0007770000000033022,0.00014900000000059327,5.7000000001605354e-05
-1.4400000000000333,4.860276145782786,56.443988193646184,12.104084631619152,17.326119554119472,4.762188890968174,53.922822669200876,6.965524310989252,10.547388521388267,1.4043949051253335,21.961808339977754,0.0004511317365262727,6.83113772453424e-05,0.0015910718562875438,6.142514970058192e-05,0.0005003532934140511,0.0009998982035902431,0.0008378383233509265
-1.4300000000000335,5.035118056588482,57.05487353024297,11.400766205081233,15.838131510382771,4.213409225395485,49.771422484489264,7.152366077509284,10.32308387143996,1.44658638545299,20.48790510009903,0.000676173652693991,0.00012447904191588934,0.0014097065868277974,4.766467065872428e-05,0.0004671556886213588,0.0014356287425162715,0.001220305389222882
-1.4200000000000337,5.2056640063243655,58.067284004093636,10.558646013838864,14.019422122727875,3.699709812627771,46.356008268736936,7.322263429778683,10.043473713153082,1.4965052377684165,18.89841983071562,0.0008827604790411809,0.00020471856287408418,0.0009330598802409744,3.149700598813303e-05,0.0009282335329326843,0.0010284431137736942,0.0007939580838336628
-1.410000000000034,5.362118818948951,59.324089987996324,9.64501134312523,11.979286947777263,3.248225653641159,43.779769414944745,7.45494005947377,9.723524709366476,1.5519762340161547,17.33796767577635,0.0009871927710841451,0.0002836867469877231,0.0005070000000012721,1.7650602409696422e-05,0.0011855903614452898,0.0007114819277116626,0.000499108433735657
-1.400000000000034,5.496791208764657,60.57100606666932,8.727358189331772,9.846063731967238,2.8771486584119206,42.06752509167555,7.530613375384454,9.389579158557217,1.6095636405276124,15.940156561854323,0.0010389999999999575,0.00036199999999961204,0.00010700000000135818,4.999999999962185e-06,0.0013379999999995184,0.0004410000000008618,0.0002720000000007345
-1.3900000000000343,5.603077167906221,61.50759803183536,7.8689898744983635,7.761242553364267,2.595257003500682,41.16396650351103,7.532173835058698,9.076599156681912,1.6643790255183097,14.816580840017606,0.0009449880239524118,0.0004380479041913596,0.00017167065868243692,3.2035928143800947e-06,0.001528419161676029,0.00017872455089905088,0.0004139161676642132
-1.3800000000000345,5.675929890284388,61.85884515873729,7.119000648149369,5.856326554741211,2.3996347768957205,40.930277291106634,7.448508403724403,8.82088532702331,1.7108262448121012,14.038093728902354,0.0007899161676655251,0.0004913712574850816,0.0003762455089804383,3.580838323374835e-06,0.0016601497005987564,2.157485029922287e-05,0.0004908203592816132
-1.3700000000000347,5.7115230623868625,61.42769812370918,6.515114091604254,4.25663307780934,2.279210963174576,41.173905320401644,7.276915662572245,8.656429963461838,1.7431645826241953,13.637390017938266,0.0005108742514978892,0.0004985568862276035,0.0008648682634715309,8.371257484989644e-06,0.0016727245508981697,7.786227544892816e-05,0.0004357305389223366
-1.360000000000035,5.7082875612438855,60.13905166786994,6.083806445536435,3.0778405715592445,2.2178798682794794,41.6788063699435,7.025464425705529,8.610524119749439,1.756825414107355,13.609518974705496,0.00030507228915714656,0.00044295180722921313,0.001049686746987892,1.1192771084275978e-05,0.0014328795180735202,0.00013278313252994533,0.00038559036144594403
-1.3500000000000352,5.668197091524071,58.05798448428128,5.841097077827062,2.4241120487501724,2.1988128634477913,42.23975369547085,6.713622708263609,8.701033865951068,1.7500996193363842,13.918032122638499,0.00013700000000050998,0.00035500000000018004,0.0010779999999998167,1.2999999999923636e-05,0.001063000000001229,0.00018699999999980974,0.0003380000000001656
-1.3400000000000354,5.598213084612519,55.39226482148391,5.792927997299074,2.385281621294694,2.208711613790366,42.68649063426442,6.372619866402375,8.934009007593811,1.7261375305067146,14.501801399649933,0.0004286167664660245,0.0002939221556888191,0.0005163233532952419,2.198203592803522e-05,0.0006264730538937118,9.598203592845515e-05,0.00042901796407154256
-1.3300000000000356,5.510394053801725,52.447268395459254,5.932422120510461,3.0233433698979204,2.2411151085076337,42.90396118429106,6.040986518943414,9.303348556751951,1.6947506561865926,15.287089213805208,0.000684664670658042,0.00021367664670702126,0.0001139161676649,3.867065868246222e-05,0.0003743113772451198,4.705389221545166e-05,0.0005024491017962694
-1.3200000000000358,5.421127960533355,49.58771937442343,6.240222872119325,4.362415567864245,2.2984864282448743,42.837586339122346,5.762649319617919,9.790596755762971,1.673658468593793,16.19671967865218,0.0008684970059874784,9.45149700602158e-05,3.487425149735817e-05,7.100598802384418e-05,0.0004964670658678764,8.358083832323826e-05,0.0005401736526944764
-1.310000000000036,5.349245120565196,47.188732233778644,6.684791709413609,6.372841403105886,2.392258037946317,42.49112561886066,5.583564368025988,10.365595638785818,1.6885422354286117,17.15857482965896,0.0009632048192769742,5.638554216852981e-05,0.00014119277108364995,8.796385542167647e-05,0.0005380000000000054,0.0002677590361436734,0.0004142409638561618
-1.3000000000000362,5.313707548154248,45.59411643731421,7.224851339220855,8.958500618437867,2.5407369599223215,41.91309559042666,5.548584267081781,10.987948829501326,1.771467871815316,18.11209477036486,0.0010119999999997284,5.999999999982512e-05,0.00034299999999915426,9.699999999998164e-05,0.0005379999999999552,0.0005279999999990761,0.00020400000000075664
-1.2900000000000365,5.331155775903388,45.07939460633269,7.813983419001506,11.954284549485088,2.765398416384189,41.17352470867606,5.697979483329371,11.610158480939157,1.9577201264396953,19.014010629206552,0.0008952335329345514,0.00011449101796388538,0.0004274311377240876,6.346706586836384e-05,0.0002457844311387671,0.0006944670658676845,0.00017166467065880082
-1.2800000000000367,5.413225154928652,45.81613732780515,8.402867730186728,15.119077715593825,3.0849092170374055,40.341687372560585,6.061719815095243,12.179249075596289,2.27985766891644,19.836989846595273,0.0007425029940128455,0.00016502994011969473,0.0005812215568850559,4.139520958082503e-05,5.6520958083778716e-05,0.0007929580838324941,0.0001709461077841981
-1.2700000000000369,5.564060425847572,47.83599867964169,8.947089479860171,18.172730141939205,3.511511306277245,39.463301489503216,6.65380375015508,12.64706736400431,2.762643628565024,20.573965811988245,0.0005167544910187976,0.00020754491017946662,0.0008758323353283888,4.259281437134508e-05,7.62814371256808e-05,0.0007534371257486235,0.00023441916167640868
-1.260000000000037,5.778043539617755,51.01760722090682,9.407985606544711,20.815389834615296,4.0463971071745775,38.55947641931898,7.463910569572683,12.976120089253186,3.416346042297724,21.230653191389756,0.0003056144578320476,0.0002454578313251271,0.0007004698795196557,3.8228915662710464e-05,5.715662650616438e-05,0.0007714096385540248,0.00015859036144632682
-1.2500000000000373,6.0383931130875155,55.0943621582069,9.755332727085356,22.769745233460185,4.677722342988154,37.634449968882365,8.44927357496437,13.14741332145949,4.23186067771209,21.820266206493336,0.00010200000000069507,0.0002809999999998431,0.00028300000000136853,3.0999999999919194e-05,1.8000000000136315e-05,0.0008189999999998367,1.1000000000561559e-05
-1.2400000000000375,6.316952090784711,59.69034494000618,9.968250719183766,23.822210910255315,5.38004322269224,36.686885997899346,9.528622949953265,13.162228067431743,5.177738777281368,22.355005467351756,7.146107784441428e-05,0.00023728742514991336,0.0003225209580837006,2.8005988023902446e-05,0.00010901796407149549,0.0006878622754495944,0.00011519161676608235
-1.2300000000000377,6.575380361972718,64.38166738140704,10.035167479722796,23.85769943966899,6.115380291337052,35.714023720096854,10.581790801369424,13.03710991097268,6.201067509591147,22.837885794812365,5.870658682626228e-05,0.0001807305389225278,0.00031066467065922856,3.3706586826231467e-05,0.0001611077844312232,0.0004984311377257156,0.00016286826347331263
-1.220000000000038,6.766471399833089,68.74339840222744,9.953365922772988,22.880013398125428,6.830291781815908,34.712686413157186,11.450731445128607,12.795960523986162,7.2265007268094985,23.255475673919918,8.205988023937547e-05,9.80958083834923e-05,0.00019449700598842408,5.705988023941113e-05,0.0001341616766468158,0.00019064670658802511,9.580239520984104e-05
-1.2100000000000382,6.839871822081776,72.44117208668906,9.728841821353884,21.00768469380678,7.459585074472161,33.66672478962594,11.9587009477263,12.460202735607481,8.16936869736414,23.581002904477383,8.443373493973041e-05,6.999999999990347e-05,0.00028024096385464655,7.334939759027134e-05,0.00014408433734930097,6.373493975916992e-05,5.749397590370656e-05
-1.2000000000000384,6.747085392322069,75.26001496654484,9.375209962781495,18.447357138206204,7.922744628285415,32.54590373119327,11.925728078438148,12.041588609107183,8.941573760536228,23.778624665589113,7.599999999999495e-05,6.999999999990347e-05,0.0004699999999992963,8.599999999987453e-05,0.00017299999999990375,3.0000000000094337e-05,3.400000000008971e-05
-1.1900000000000386,6.450022006714772,77.13294206916497,8.913569567105197,15.458264363277172,8.126538037477765,31.305064964181927,11.196335994631486,11.53746238361787,9.464201692546599,23.813774542297317,3.1089820359512025e-05,9.275449101790848e-05,0.0008208982035915126,8.180838323354634e-05,0.00014964670658690977,3.299401197603128e-05,0.00010825149700572766
-1.1800000000000388,5.930561661878911,78.14032413174131,8.372483384820717,12.311680362526841,7.971573549025126,29.886993349118548,9.669379840359733,10.929117199673916,9.67882125313488,23.661526221046074,1.1976047905624576e-06,0.00010740718562881803,0.0011352395209572026,7.070059880251809e-05,0.00011404191616788048,7.669461077798603e-05,0.00014377245508997828
-1.170000000000039,5.204159053455605,78.48533402030732,7.791083601190757,9.27036036523203,7.366725039837361,28.2357590914063,7.338819884790517,10.187680959768155,9.555880443795282,23.310070965373523,1.796407185789239e-06,0.0001056107784430712,0.001375359281436361,4.555089820365808e-05,5.356287425172067e-05,0.00020304191616718047,0.00010065868263487994
-1.1600000000000392,4.3279378255801415,78.46685549944488,7.215479310273197,6.5432864188845485,6.248403035157264,26.299510479394044,4.316537205404195,9.279441084862215,9.100804374138258,22.756431380175062,1.7108433735016967e-05,8.51204819277789e-05,0.0012001566265075086,2.666265060238869e-05,3.81686746987657e-05,0.0002308915662651421,5.1807228915852386e-05
-1.1500000000000394,3.412451492168065,78.43979055785087,6.6987286097570635,4.282187451349177,4.605679584160546,24.050778506620063,0.8631166218263264,8.182472148037021,8.352368396698694,22.00212684772327,4.000000000006563e-05,5.5000000000139607e-05,0.0008110000000013468,1.0999999999930651e-05,4.599999999996128e-05,0.00020800000000012687,2.0713682505335562e-16
-1.1400000000000396,2.6284367334993295,78.78637853999798,6.297179879081615,2.572704061060469,2.506916989250443,21.500446888406998,-2.599178163780184,6.903496722688235,7.377968629837112,21.051889576749332,3.5808383233579196e-05,2.7455089820495826e-05,0.0004283652694625115,1.7586826347275767e-05,3.402395209584857e-05,0.00011638323353331168,9.940119760441351e-05
-1.1300000000000399,2.2092527707136553,79.89022817169105,6.06747171885966,1.4377885971816848,0.12332864354901851,18.70806294770787,-5.489429502772269,5.494848638178585,6.265273612085631,19.918351931865583,2.726946107784868e-05,2.5203592814205113e-05,0.0003294910179622887,2.1604790419232367e-05,4.536526946085373e-05,0.00011388622754425384,0.00017726347305375417
-1.12000000000004,2.4472491292750624,82.11027756168751,6.064259581765977,0.8471494291269455,-2.2576283986359216,15.779531886130238,-7.094552174259737,4.065550397674568,5.1115463433201045,18.629806295052113,9.904191616737385e-06,7.43053892213386e-05,0.0008067365269442055,2.0407185628778804e-05,0.00010404790419139136,0.00029232934131668246,0.00021139520958071673
-1.1100000000000403,3.679992340435602,85.7388285137065,6.337896460159849,0.7322365475415029,-4.219258750571242,12.868826962154792,-6.616594940709896,2.7916560933826435,4.0190877764425705,17.244387096522836,1.553012048186405e-05,0.0001053132530119751,0.000981722891566134,1.6421686747014285e-05,0.00012161445783133598,0.0003533975903614471,0.00025798795180702983
-1.1000000000000405,6.271106093867353,90.98438941931956,6.932098602204871,0.9969131856996895,-5.2435057051397695,10.141499190095697,-3.2636005421577687,1.9016702029707555,3.0798710689854,15.845863904737987,3.30000000001035e-05,0.0001270000000000145,0.0010009999999999544,1.1000000000004435e-05,0.00011800000000000723,0.00035400000000001863,0.00031099999999978465
-1.0900000000000407,10.58419411499538,97.93767415227896,7.881796211783588,1.5335234327586476,-4.733499364043533,7.762965597145751,3.6563449368846346,1.664737779560008,2.3730518511004712,14.545512038009926,7.910778443099119e-05,0.00017310778443098513,0.0008237544910187141,5.011976047938275e-06,9.344910179650568e-05,0.00022226347305440004,0.0003618982035926151
-1.080000000000041,16.953354469832533,106.5497707422856,9.210235869473133,2.233431652428615,-2.0694084551235568,5.8723701254216065,14.6177187920264,2.359613661423451,1.9578887061791725,13.473638932972477,0.00011988023952078162,0.00021289221556872973,0.0006081736526958221,4.3592814371010004e-06,7.89760479041747e-05,0.00015336526946083175,0.0003643832335333177
-1.0700000000000411,25.654642526609514,116.61527008915057,10.925864603753714,2.996582388202743,3.3188401190697023,4.563756285654057,29.76556113098984,4.235668771927482,1.8693423930143458,12.770651422937297,0.00014982035928125644,0.0002398383233531371,0.00031476047904307585,1.4538922155623882e-05,8.4964071856268e-05,0.00021204790419142755,0.00026857485029977503
-1.0600000000000414,36.89513956709875,127.77930082821608,13.021279031795505,3.7403080216280524,11.876037716853912,3.874073495486632,48.84566805382916,7.47345854729457,2.115839726784583,12.57652193456896,0.00019777108433708285,0.00023587951807237733,0.0002114216867470046,1.760240963859599e-05,5.360240963876765e-05,0.00024512048192765396,0.00017636144578349596
-1.0500000000000416,50.75055386610309,139.50697728258595,15.46125831016692,4.403427031227353,23.79588173889797,3.7823044023293506,71.07364138530416,12.129052584409681,2.6772934387911222,13.018150473973238,0.0002549999999997714,0.0002160000000001862,0.00020600000000006163,1.700000000015824e-05,3.000000000223622e-06,0.0002649999999998785,8.600000000038579e-05
-1.0400000000000418,67.22627432059517,151.190177786732,18.19318865011904,4.957002676393242,38.993087649718994,4.211112825958041,95.25687280654644,18.12042925014244,3.5081515400971104,14.194363553575387,0.000253802395209623,0.0001453413173655614,0.00031318562874207084,1.6401197604798485e-05,5.5095808383013266e-05,0.00018655688622783216,8.001197604793947e-05
-1.030000000000042,86.21365149090211,162.16562528625548,21.139204436628372,5.406466427175415,57.017125933429,5.043898635418868,119.79694405959253,25.19753244896744,4.540568485216199,16.16597776614111,0.00025201197604794696,8.555089820369571e-05,0.0003857904191616362,1.3035928143657325e-05,7.952694610789553e-05,0.00011364670658706765,0.00010544311377209096
-1.0200000000000422,107.49571686034432,171.80668875013578,24.201748828602163,5.796022579920908,77.04010320243196,6.143706988964631,142.85346492806772,32.94564248491151,5.690518757580043,18.948147561141816,0.000249017964071813,4.7826347305538664e-05,0.00038818562874247685,4.053892215521528e-06,4.7790419161790226e-05,5.19700598805374e-05,0.00019466467065831357
-1.0100000000000424,130.76079367185707,179.61894742949337,27.274164524416793,6.210343106445636,97.90748644620552,7.378593654989074,162.57022259101012,40.817907888944795,6.866813782938764,22.511588920677593,0.00024481927710845415,3.102409638559292e-05,0.00027210843373569717,4.1807228915551325e-06,8.987951807194693e-05,0.00019083132530022532,0.0002957710843368991
-1.0000000000000426,155.49271012689664,185.28817710378996,30.237792682393046,6.770566364222838,118.13908895082004,8.642430841234873,177.24102069589415,48.15518367746953,7.975226285659567,26.767892567457945,0.00024000000000014954,2.500000000007844e-05,9.500000000082229e-05,9.000000000127233e-06,0.00016999999999967578,0.0004329999999989843,0.0004029999999995434
-0.9900000000000428,181.0914494186497,188.7713221554766,32.988809641928206,7.62914751294758,136.19576554631482,9.887143483871107,185.65749433582698,54.310033532377055,8.934440943956806,31.59268841300435,0.00017952095808407745,7.290419161652846e-05,5.607784431155609e-05,3.77425149700465e-05,0.00011670658682659008,0.00037371856287454655,0.00047904790419129207
-0.9800000000000431,206.75130107665564,190.25738407925994,35.43161920092044,8.954507462436936,150.5734617868989,11.137453043710783,187.1864979757421,58.70335798530444,9.67864989886897,36.81492635540657,0.0001247724550899257,0.00011171856287409185,6.952095808328451e-05,6.352095808379976e-05,8.712574850292325e-05,0.0002784730538929717,0.0005351377245508304
-0.9700000000000433,231.44829997164817,190.12281945296704,37.48541301387101,10.910903557349192,160.01139666818298,12.502072626365203,181.85029129042306,60.91561760051355,10.163593214429872,42.22555086157124,8.165868263492704e-05,0.00013207784431127056,0.00018928143712518378,8.328143712561875e-05,0.00010568862275441331,0.00011020958083899943,0.0005507065868262697
-0.9600000000000435,253.92733108511052,188.84684693442685,39.08625732014922,13.63277179003876,163.65024518373409,14.168630367057666,170.27631666317853,60.74632383338816,10.368073550958743,47.587312344827325,6.819277108435907e-05,0.00011077108433755856,0.0002793012048189611,0.00011981927710822791,0.00016845783132493403,3.5903614457871775e-05,0.0004808554216872261
-0.9500000000000437,272.74817296942365,186.91296556579246,40.189346087033826,17.200802563411244,161.12759376641228,16.381430094411826,153.5526343999228,58.23280115270524,10.292177237941829,52.65147106689925,7.000000000000711e-05,6.800000000024275e-05,0.00035399999999977127,0.00016499999999989716,0.00025399999999964085,1.0000000000060321e-05,0.0003670000000004714
-0.9400000000000439,286.29314537415866,184.7243553006316,40.76730142525277,21.600950529994634,152.6358380075262,19.387436917643903,133.1446436240835,53.647468116262424,9.954948255231503,57.14880538454048,0.00011071856287407262,5.123353293418551e-05,0.0002821437125751507,0.00015422155688630965,0.0005402275449090038,4.892215568843933e-05,0.00016759880239603664
-0.9300000000000441,293.0290636626132,182.51706284001585,40.82200810440138,26.72764552399825,138.89390426519373,23.39131889151947,110.63407591717396,47.44018501011901,9.391266060600412,60.83477264956787,0.0001370119760478816,4.039520958075176e-05,0.0002387425149699615,0.00016932934131709876,0.0006976167664675069,0.00013685029940041355,3.2616766467088116e-05
-0.9200000000000443,291.655728998784,180.32722920143544,40.38605885712124,32.365101480097216,121.082492805207,28.487817052286243,87.62728462094468,40.18676774278217,8.649631594957375,63.49387286001307,0.0001340179640718142,4.159281437113885e-05,0.00025311377245500536,0.00023699401197579712,0.0005934251497010385,0.00032427544910101116,2.8425149700616988e-05
-0.9100000000000446,281.4130359807599,177.99425167651071,39.52599754517457,38.201188267912386,100.72104230496855,34.61382119974485,65.59864262378657,32.51897899602951,7.789139592942413,64.98153909749479,9.880722891589608e-05,4.597590361442222e-05,0.0005959518072267431,0.00017690361445835042,0.0006903975903605915,0.00029496385542229813,0.0001220240963849298
-0.9000000000000448,262.3178603974935,175.202479835264,38.334142269400246,43.86082588198268,79.47178809966162,41.52691047046272,45.75529169083838,25.04708687545112,6.873343500562057,65.26388390232226,4.7000000000351136e-05,5.2000000000137345e-05,0.0011079999999978147,5.100000000044899e-05,0.0008909999999991199,0.00015400000000064394,0.0002659999999993747
-0.890000000000045,235.3787312980038,171.56882708260142,36.92020285168652,48.927351638629744,59.02060351700079,48.77974049209274,29.034191729081712,18.325814704964245,5.967291382994043,64.44735289045045,3.562275449106937e-05,0.00012505389221525857,0.0010996167664671247,3.543113772448117e-05,0.001195191616765166,7.495808383270516e-05,0.00035462275449063975
-0.8800000000000452,202.41911694562683,166.7253013084694,35.39045749166295,53.03283174592229,40.75475839979465,55.80338489016846,15.945687764148387,12.760124274755382,5.125462374540364,62.78701220859256,2.582634730535994e-05,0.00017874251496992086,0.0009386826347326012,6.807784431069744e-05,0.0012812275449117431,5.381437125709447e-05,0.0004529281437120713
-0.8700000000000454,165.9061100539407,160.43105290111023,33.84392659835574,55.893968184737496,25.706831321760582,61.95842216980307,6.664410616730418,8.608801391078442,4.390249090836985,60.66297040133203,1.9239520958131265e-05,0.00019311377245503122,0.00046802395209784655,0.00019861676646654581,0.0009243413173668277,0.00015022155688584733,0.0005708922155683401
-0.8600000000000456,128.58852658533618,152.64755073416862,32.36968649754359,57.36639577361754,14.459009379665398,66.64449195389845,1.0514914612231638,5.972090865932375,3.7877376354586105,58.53154057685736,2.495180722891541e-05,0.00018090361445797061,0.0006364096385520017,0.00021198795180753076,0.0005266746987970189,0.0001921445783131903,0.0005219397590367345
-0.8500000000000458,93.13021567850703,143.57400932277812,31.050890664261793,57.464786770187885,7.1372610612806895,69.40418637423683,-1.2792506164404926,4.806539251861701,3.326780965051414,56.855571150944215,3.7000000000011253e-05,0.00015500000000013127,0.0011339999999977585,0.0001650000000002904,0.00010800000000185629,0.00020599999999986693,0.00038700000000061157
-0.840000000000046,61.765412147599854,133.62608566475024,29.96921104666993,56.342912238559784,3.462754879545329,69.99664201631094,-0.8826863694351972,4.9545588017619036,3.0002998437744326,56.03161546845642,0.00012262874251458796,0.00012026946107801436,0.00812382035925011,7.757485029975321e-05,0.00044991616766314825,0.002207796407176663,0.0035917904191473554
-0.8300000000000463,36.19657070563824,123.42672940401127,29.210000021224396,54.249886143575225,2.858975439674734,68.42208311395457,1.5911084613409212,6.178678276850294,2.790088146025501,56.33239120365739,0.0002141856287420023,0.00014817964071788014,0.010753491017992,2.2161676646568773e-05,0.0007169401197599739,0.005367952095783582,0.0059939101796372485
-0.8200000000000465,17.28978277468228,113.6663840522611,28.84757139313325,51.46215739702772,4.549680270049151,64.90806326359618,5.470481506779814,8.199872946735024,2.669733899283969,57.860530004686666,0.00031777844311324386,0.0003032694610771623,0.004530736526974255,3.174251496999783e-05,0.0008319101796402085,0.010879928143687581,0.006766365269457584
-0.8100000000000467,5.198855996407151,105.0458535153996,28.93099528156555,48.23479193176009,7.6997681181029325,59.86510510400651,10.11965503577863,10.730755073421792,2.6110401731613053,60.53265359725358,0.00033232530120496685,0.00040490361445750915,0.003049951807224445,3.3807228915688004e-05,0.0012944337349368286,0.010110024096403856,0.005569048192781205
-0.8000000000000469,-0.5876597198034633,98.16706893005174,29.458299989869104,44.77002225488091,11.519231239450987,53.836555144160755,14.977855130893808,13.498787758054027,2.5879073890460207,64.08048446539728,0.0003010000000002514,0.00047899999999966497,0.004011999999995461,3.200000000004035e-05,0.0019359999999970302,0.0061040000000185,0.003357000000010215
-0.7900000000000471,-1.1009267106718377,93.44470704082846,30.35607669079647,41.20894465845673,15.344469530065659,47.432950301778746,19.581539090863114,16.25896211384992,2.579291222428488,68.07860431882887,0.00022375449101833607,0.0003969640718566439,0.005121580838318228,4.996407185622063e-05,0.0020198323353289457,0.004811185628748544,0.001804305389228776
-0.7800000000000473,2.296561913624957,91.04397647257609,31.47385847355591,37.63622990789605,18.68427637578032,41.245539035397094,23.574426304502243,18.80000637138197,2.570402941343133,72.00006229811949,0.0001488802395212293,0.0003044550898208625,0.005106000000010866,5.2119760479189624e-05,0.0018412455089853608,0.003507700598808614,0.0022786407185413945
-0.7700000000000475,8.089109765345349,90.8674141832507,32.59227859284024,34.11118874798329,21.211667426020153,35.785900708388745,26.687239071860862,20.93408460315408,2.552354702141724,75.2723415291353,7.882035928169028e-05,0.0001906826347310981,0.0028060000000108805,2.2179640718714804e-05,0.001129868263476404,0.002182550898209807,0.006868461077822693
-0.7600000000000477,14.815977971255045,92.56405837844673,33.463278149413156,30.66390687239033,22.761024386002365,31.378076731635012,28.750582406180047,22.512014625573148,2.5208724324780674,77.38322307736684,7.209638554192375e-05,9.474698795224726e-05,0.001398987951811747,1.0807228915693081e-05,0.0011046867469863878,0.003133506024086274,0.005318253012070588
-0.750000000000048,21.217053647846214,95.59912237541805,33.852406344522144,27.322703726227676,23.27613266767607,28.14490098162692,29.663845575986233,23.41451035424155,2.4749354388540175,77.93826449758406,9.799999999969622e-05,8.000000000424063e-06,0.0004520000000045499,9.000000000045423e-06,0.0014329999999984151,0.005256999999989827,0.0006050000000225996
-0.7400000000000482,26.348599274376177,99.32704838874353,33.5868441972107,24.11721111089199,22.774776783342833,25.9998475704835,29.386619853414057,23.558656290196918,2.4156416605895332,76.71120002053222,0.00020159281437076462,5.1712574850090254e-05,0.0008005029940102847,8.401197604746366e-06,0.0030611437125669973,0.002382748503007915,0.00238464071855428
-0.7300000000000484,29.646735212454484,103.08007575939169,32.585850131798956,21.076516534441364,21.31635093374306,24.68053432194673,27.928262467306254,22.900692791470966,2.3454330131373173,73.65339514278345,0.0002619101796409426,9.32514970058067e-05,0.0013392994011930935,6.419161676609252e-06,0.003965856287427901,0.0006378083832309009,0.002984976047912904
-0.7200000000000486,30.920037978892754,106.24011694961547,30.872760692686942,18.238628364297288,18.993075747366106,23.816829959422517,25.352944384223253,21.441769558255096,2.268194368903654,68.90089998997976,0.00023436526946117548,0.00013037724550880346,0.0022644491017918787,1.6287425150609232e-06,0.003401784431140478,0.0011857125748476168,0.0011909640718650557
-0.7100000000000488,30.322687908364003,108.34670826861499,28.553892840244714,15.628104283207186,15.922584598883176,23.003424930264163,21.775849937137778,19.224404660420337,2.1891910035185767,62.738556494627154,0.0001633734939763522,0.00013146987951818173,0.0020621325301242418,1.471084337343575e-05,0.0024172048192828517,0.0012606746987959716,0.000932072289154076
-0.700000000000049,28.25903341474328,109.15642159423196,25.794192574989186,13.264403725743023,12.269144950980365,21.885048618600123,17.379015328523025,16.334108872238076,2.1161506795543645,55.58139576939281,7.000000000055676e-05,0.00011400000000013919,0.001279000000003647,3.699999999985079e-05,0.0012160000000055425,0.001092000000000761,0.0014639999999975363
-0.6900000000000492,25.29639173111512,108.69643775409824,22.78756347117394,11.15688671248099,8.269508017800405,20.218972727165607,12.425983506822766,12.901483906522708,2.0600360290211044,47.929206742690496,0.00018017964071815335,5.6514970060082034e-05,0.0017610359281415348,3.819760479040177e-05,0.0005393532934163191,0.0008452934131747676,0.0008352574850328676
-0.6800000000000495,22.0789811121448,107.26826404080599,19.73395002330501,9.306427414570262,4.264051989845019,17.912343200083146,7.277513697043133,9.108334844137485,2.035466470209091,40.311986423890495,0.0002907544910175122,4.5467065867725435e-05,0.0020304491017972045,3.2874251497103475e-05,0.00019073053892066814,0.0007070718562870102,0.0005673413173631033
-0.6700000000000497,19.254309672327548,105.39325295065164,16.822936655668833,7.70844368367821,0.7202987271633711,15.025060477602072,2.398339439905466,5.191926410406364,2.060638490647416,33.22389616563189,0.000402131736526436,0.00012870059880185476,0.0018681736526952673,1.4311377245605094e-05,0.0005080958083817212,0.0007891077844307525,0.0010320119760457147
-0.6600000000000499,17.430489858596932,103.72374787119226,14.23941678624396,6.364480288880471,-1.7422295819805036,11.76234682389145,-1.6207077127034553,1.4667191247006912,2.1565359211622233,27.095753935008812,0.0005083855421682026,0.00017449397590340186,0.0013072650602445593,1.8337349397512215e-05,0.0008871566265040672,0.0007871807228917964,0.0008504578313277391
-0.6500000000000501,17.120153315595967,102.92389044752915,12.143262825597354,5.276824528516787,-2.390456469217233,8.420794260407636,-4.103909092867436,-1.701455510813727,2.345882826091892,22.21170598151063,0.0006119999999995599,0.0002009999999998796,0.0005410000000037999,3.399999999990337e-05,0.001297999999998051,0.0007420000000002372,0.0003360000000024565
-0.6400000000000503,18.72583381896279,103.59582691877198,10.67785207921634,4.456683003672851,-0.41246409663512795,5.3538879407554365,-4.300460577910616,-3.8931769327296872,2.6513357988356514,18.720909089963367,0.0005155928143716667,0.0002165688622754295,0.0003224371257495805,3.45988023952024e-05,0.0015818323353279772,0.0006551736526950466,0.0007342035928124375
-0.6300000000000505,22.516524851304567,106.23725856369104,9.961421644749963,3.9210034526963486,4.995193754387819,2.920677519874938,-1.4432501973489917,-4.666413321862612,3.0932116020718436,16.634995182232547,0.0003830239520967189,0.0002254191616767347,0.0003694550898174999,3.697604790416078e-05,0.0016623293413189756,0.0005479940119767784,0.001095455089818958
-0.6200000000000507,28.611803368962214,111.23464703455838,10.079585281030992,3.6889197892510244,14.517250701765537,1.4391265836508302,5.17184970926227,-3.597489994141641,3.687332159367074,15.850537802673555,0.00017703592814475585,0.00022062874251498694,0.0009556826347277657,4.2964071856229155e-05,0.0013299940119776686,0.0003994910179647913,0.0013816826347291325
-0.610000000000051,36.98028604207768,118.87339297580682,11.07796490695538,3.777620181066257,28.613504316389854,1.1459889151480218,16.09584155429048,-0.3301868452338578,4.44454038308739,16.182253801010106,0.0001638554216863592,0.00022695180722883345,0.0014364939759015688,4.301204819277879e-05,0.0008834216867494724,0.000569662650600761,0.0014026626506029804
-0.6000000000000512,47.4015478473205,129.28431030601558,12.948386512414325,4.19761009628331,47.34279001449946,2.165171978688666,31.558908218312865,5.347180142208026,5.367338236311069,17.397130677644473,0.000249999999999544,0.0002389999999999293,0.0018629999999978267,4.0000000000054986e-05,0.0003780000000025033,0.000903999999998353,0.0012870000000005856
-0.5900000000000514,59.52900178735094,142.44151584680526,15.627254801450029,4.9502322848622855,70.3598895163518,4.484586767133153,51.413975012868384,13.458428908717604,6.455026928655837,19.254561501912335,0.000454191616765439,0.0001479820359285639,0.0012839580838352172,1.904191616780522e-05,0.00033009580838348133,0.0009147784431137119,0.0009612514970076269
-0.5800000000000516,72.89221843325517,158.07538810971508,18.98808920993858,6.026216803066054,96.82347894222566,7.949841291837915,74.99987382665638,23.777259483145343,7.701559737906015,21.541160853704355,0.000640796407184883,7.672455089834222e-05,0.0008100419161689914,5.790419161698132e-06,0.00028970059880253403,0.0008004730538940639,0.0007084191616771775
-0.5700000000000518,86.95967148385483,175.6179240234512,22.842654346635854,7.405768650203145,125.42362264539402,12.268346194186801,101.10363434738264,35.800007183718094,9.09611825285558,24.095934685115107,0.0007916946107777106,4.55868263475468e-05,0.0005495628742528539,8.185628742538777e-06,0.00026455089820370727,0.0004322095808402303,0.0006036287425154906
-0.560000000000052,101.22378304746444,194.17806672912948,26.952346833094524,9.062294762206463,154.4868823619654,17.035069484086833,128.0190197267065,48.76345196473616,10.62267011819849,26.821348255110678,0.0008139759036146805,4.0168674698801385e-05,0.0005079156626502648,6.216867469901918e-06,0.000381240963854435,0.00028950602409653854,0.00040220481927838165
-0.5500000000000522,115.21407819140516,212.47466535338776,31.026539120756976,10.959528061116023,181.99834873070276,21.751010977045503,153.56373988271085,61.63945263135081,12.248968047256206,29.662252591077127,0.0007700000000001639,4.7999999999896636e-05,0.0005789999999996299,1.999999999968212e-06,0.0005709999999990107,0.00026300000000009427,0.0001510000000012924
-0.5400000000000524,128.63093074880243,229.03439027579688,34.77129036103821,13.067431701524361,205.97198821518822,25.907065977868744,175.46395317461784,73.30817558394595,13.928886969667065,32.5996486789516,0.0005843712574860429,3.7221556886242844e-05,0.0005245089820361689,1.6970059880073544e-05,0.00047698802395257687,0.00019773053892246947,0.0003402215568852434
-0.5300000000000527,141.29198179640602,242.28231395400226,37.90417606590205,15.362720861504776,224.55359809157238,29.0316403953473,191.53860938306775,82.64090342710102,15.59026045149627,35.615037967764195,0.0003813532934144973,4.4029940119521885e-05,0.00055360479041808,2.54191616766022e-05,0.00038119760479093516,0.00015913772455080965,0.00039092215568982045
-0.5200000000000529,153.08974449021136,250.78564662319343,40.19385489124413,17.836263544155948,236.2597097229107,30.76566322864791,200.05043367249533,88.6687047585042,17.134788513418368,38.675257495303775,0.00014302994012095285,8.65449101794267e-05,0.0007524071856277205,2.062874251505387e-05,0.00028179640718614815,0.00017470658682627386,0.00016038323353414108
-0.5100000000000531,163.8826905923441,253.4951412785508,41.49444777110509,20.49539200209375,240.14077691623777,30.924814988429137,199.9933069506099,90.72900543996576,18.4440070816647,41.725694204651624,8.386746987929344e-05,0.0001332048192768233,0.0006820361445794663,1.6614457831422212e-05,0.0003072409638549497,0.000332277108432516,0.00010187951807212654
-0.5000000000000533,173.38478608097236,249.93571857911343,41.77213787885134,23.3631854064858,235.8730683346924,29.53940638648497,191.2596587793742,88.56880391970225,19.394069707379188,44.69692186487323,0.00011699999999985718,0.00018199999999964441,0.00047300000000117067,1.3000000000060018e-05,0.0003969999999995301,0.0005629999999987507,0.00013199999999983272
-0.4900000000000535,181.0516798279882,240.33038085890084,41.11740665238376,26.454571387798712,223.81415239356622,26.874817406993014,174.71432019490678,82.40589245266926,19.872267796674457,47.50444774653422,0.0001259820359280552,0.00016283832335341439,0.00031491616766561603,1.7191616766472928e-05,0.000386221556886283,0.0005270718562876284,0.00014397604790413262
-0.4800000000000537,186.14943159249782,225.57514548128114,39.73855733376396,29.772925382368943,204.94097626107512,23.40469541379605,152.01336795419957,72.89600821007258,19.80504072912353,50.08203070300581,0.00010828742515001808,0.00014367664670675637,0.00026531736526861895,2.5137724550828447e-05,0.000329598802396007,0.00041664670658825314,0.0001585209580837346
-0.47000000000005393,187.82737521188437,207.1381554050238,37.931375674154665,33.27676476862362,180.76334095077436,19.767809506359846,125.374223404014,61.05144910475479,19.172219645622153,52.38522803804409,3.6431137724931697e-05,0.00012451497005996472,0.0004359760479031991,4.07065868262594e-05,0.00017989820359361628,0.00015497005988162872,0.00017828143712563668
-0.46000000000005414,185.31800978665868,186.84996013153736,36.03821174698727,36.86761808990755,153.17417430815433,16.69691457042529,97.2469617075933,48.10336716877664,18.01628541236452,54.40750708257552,3.068674698777668e-05,0.00011601204819276971,0.0007941807228890983,5.355421686739599e-05,0.00017114457831291256,6.878313253004478e-05,0.00019653012048182598
-0.45000000000005436,178.1361119103741,166.6024126587846,34.39824703167925,40.39311450917223,124.22695720239679,14.93153393315888,69.96206017380975,35.32572779219502,16.434490742743,56.18888170815006,5.8999999999774375e-05,0.00011300000000004526,0.0012489999999977127,6.499999999992279e-05,0.00023499999999968403,7.29999999999125e-05,0.00021399999999990199
-0.44000000000005457,166.27302144101705,148.14284921971736,33.30452925869799,43.651364500441574,96.03414812794749,15.13081894276623,45.5682751190397,23.928293279420398,14.56785127606831,57.806674128490734,5.72035928143821e-05,5.731137724582149e-05,0.0016687604790397675,5.661676646704943e-05,0.00016853293413207735,5.982634730544503e-05,0.00013795209580876803
-0.4300000000000548,150.21951790883517,132.72854272559255,32.94934669092986,46.447445956875995,70.37476869298665,17.771650156654278,25.486536299627822,14.849982151548595,12.568741087714255,59.37564159733468,4.631736526965487e-05,2.0395209580863447e-05,0.001800808383235885,4.3688622754549825e-05,0.00012103592814374716,8.834730538865378e-05,0.00010122754490994663
-0.420000000000055,130.9424539735528,121.09233899283143,33.39907871037437,48.62081499691212,48.63589738453625,23.080259304462547,10.544702011182519,8.726485921400437,10.585303797045196,61.024871125214425,1.6976047904340354e-05,2.159281437131701e-05,0.0013487125748526288,2.15329341318902e-05,0.00011205389221561135,0.00020152095808325792,0.00014434131736504086
-0.4100000000000552,109.73986556132085,113.40637413700551,34.57948448109986,50.08230948815121,31.676167430068805,30.97415665962065,0.9631104816030045,5.838567698064503,8.7432554694469,62.87666516830587,4.516867469850701e-05,2.0409638554261382e-05,0.000902771084339663,1.1216867469979565e-05,8.63373493977692e-05,0.00024278313253010792,0.0002067108433731122
-0.4000000000000554,88.04865434439058,109.34309778641928,36.28748494976798,50.823900892087806,19.79604377201041,41.03823103452279,-3.5618817816049573,6.11666283820773,7.1352642271187054,65.01611818481875,0.00010299999999976706,1.799999999997533e-05,0.0004600000000023755,7.00000000011274e-06,5.200000000017948e-05,0.0002469999999999747,0.00027899999999961625
-0.39000000000005564,67.22825950239789,108.18512666988127,38.229030433885406,50.89882188649491,12.777555555758443,52.551819806036804,-3.7280473205366094,9.18534877213505,5.8152627993654304,67.46306995717714,0.00017305988023917442,1.261077844314962e-05,0.0012534131736484037,1.1790419161746029e-05,9.750898203569299e-05,0.0001398143712580659,0.0004263053892207707
-0.38000000000005585,48.479668574807356,108.9649021892235,40.063941014756985,50.3837901372416,10.011249200488837,64.49939913758247,-0.4829178358875827,14.415037899267936,4.804297277259467,70.14333940898585,0.0002354131736524233,2.1053892215382376e-05,0.001740143712575535,1.8556886227555723e-05,0.00010270658682677412,0.00010771856287360553,0.0005232215568862595
-0.37000000000005606,32.610714187187554,110.60999519144818,41.47544262652538,49.34385784772618,10.594935642698745,75.74209635740057,5.122371439804084,21.025685354333604,4.0876614306953885,72.9055606997082,0.0002821197604787162,5.758083832308587e-05,0.0016042155688630445,2.9335329341238908e-05,2.6059880239939968e-05,0.00022807784431069835,0.000517832335329368
-0.3600000000000563,20.0758958244312,112.09951616107396,42.21050855123976,47.81580360867443,13.51544841171838,85.10931784326,12.064047126772863,28.170732569625596,3.62830735007267,75.53246509454094,0.00032702409638529566,8.232530120471033e-05,0.0014649638554224893,2.2662650602500796e-05,0.00010575903614370955,0.000253891566265178,0.0005823975903608921
-0.3500000000000565,10.965658479694438,112.59538015801397,42.11193418733629,45.81839864424367,17.771223527197872,91.5692357960306,19.438753714629645,35.03340321061961,3.3741794882347147,77.77485295974236,0.0003709999999998791,0.00010100000000002593,0.0013240000000007681,7.000000000176516e-06,0.0002659999999991338,0.0002310000000001628,0.0006829999999994421
-0.3400000000000567,5.061962255815119,111.5450444519177,41.12822837754734,43.37963045744523,22.47283883731521,94.38634998092756,26.521999060858416,40.913974521756046,3.266708161133815,79.38837275099311,0.00033507185628764294,0.00011896407185616847,0.0008695089820384642,4.831736526918105e-05,0.00012408383233610584,0.00016513173652731494,0.0006638383233534014
-0.3300000000000569,1.9207454565621436,108.73527221416327,39.30590712119866,40.559627531943,26.912928327946005,93.23948582710295,32.79694479665991,45.30481175988805,3.248175445783798,80.17130596463228,0.00030507185628748045,0.00013771856287405897,0.00046758083832504165,6.572455089828648e-05,4.599401197574615e-05,0.0001184311377245794,0.0006114790419168392
-0.3200000000000571,0.9767190913208273,104.31035617217906,36.783258466353836,37.471004003313055,30.581807289342457,88.2857569286232,37.92546292998012,47.91814770201053,3.267325939393502,79.99385127837914,0.00028710778443120883,0.00015807784431130418,0.0001723712574867479,3.458682634755754e-05,9.74910179638034e-05,0.00011064670658686391,0.0004917185628749232
-0.31000000000005734,1.6140361955567677,98.71352884650486,33.75829261657256,34.25226673461563,33.19748727899107,80.12687848617466,41.76284577716176,48.71634995421665,3.282727729832081,78.82249118185133,0.00024402409638582995,0.0001463132530122378,0.00019724096385440536,1.5650602409825536e-05,0.00020127710843300542,7.778313253036751e-05,0.00038500000000056414
-0.30000000000005755,3.253638092154158,92.61726535700171,30.46749970668615,31.057440412471735,34.6611348756622,69.69945353543426,44.295889907102556,47.85363763716971,3.264123659061191,76.71834187508497,0.00018800000000028446,0.00011800000000011243,0.0003869999999989476,3.0000000001581767e-06,0.00033199999999922815,3.200000000023674e-05,0.000285000000000569
-0.29000000000005777,5.400781790843751,86.8115305944582,27.15319376654387,28.027202746493973,35.01285178064542,58.111507844682436,45.60753979832426,45.61658127270594,3.192053579577803,73.8197748599529,0.00014728143712597295,0.00011560479041919093,0.00040316766467052555,6.592814371227091e-06,0.0001385868263484046,4.876646706579894e-05,0.00016943113772520851
-0.280000000000058,7.678084512941659,82.0722755899621,24.032073746250397,25.26388890214493,34.36802471402231,46.45726738883748,45.832011251529394,42.34953638042387,3.056584783960071,70.30172852425963,0.00010083233532970328,0.00010728143712588436,0.0004114311377245239,1.216167664660237e-05,3.4293413173219154e-05,5.782634730546845e-05,9.041916167667163e-05
-0.2700000000000582,9.826728932051205,79.05675306020228,21.286786397905434,22.830853435311344,32.85940434896223,35.71577678362764,45.113062830273854,38.40783480440244,2.856841862808389,66.35088550349329,4.274850299443398e-05,8.692215568863916e-05,0.00040364670658684173,2.174251497003143e-05,0.00011094011976003669,5.1239520958106815e-05,8.56287425150028e-05
-0.2600000000000584,11.712400864462039,78.17332071006855,19.035134744563994,20.736500002258644,30.589072362320223,26.57666922439875,43.574508259329946,34.09805302827087,2.5996641481808345,62.117720298421325,4.963855421675456e-05,7.602409638554155e-05,0.000366409638554527,3.056626506022816e-05,0.0001616506024094221,9.591566265015742e-05,5.7361445783367666e-05
-0.2500000000000586,13.292995616230094,79.53322322543778,17.338459159405048,18.954326657890643,27.612508449612612,19.438566697436826,41.30579808393716,29.67308357505273,2.300110321864627,57.72056424314595,8.999999999990892e-05,7.000000000016084e-05,0.00031400000000034374,3.899999999996181e-05,0.00019899999999978577,0.00016699999999955604,1.7000000000225846e-05
-0.24000000000005883,14.589356903867962,82.9156534164822,16.198345243898043,17.43065400761583,23.94728156543584,14.399043941492629,38.37017682944798,25.32779649359965,1.9816520538775912,53.2459706407317,0.00016844311377200075,6.461077844318256e-05,0.00012897005988136412,3.7203592814341435e-05,0.00010558682634786688,0.00012149101796436697,4.454491017947027e-05
-0.23000000000005905,15.652523213854202,87.7876533179407,15.559768933734583,16.095106035582784,19.603611249906933,11.29765765053608,34.828699247854225,21.206779508233414,1.6763944741195642,48.76152412015994,0.0002287065868261269,7.463473053867426e-05,7.910179640586908e-05,3.461676646704172e-05,6.236526946073742e-05,0.00011866467065824406,6.675449101789131e-05
-0.22000000000005926,16.536360365136332,93.38525423713743,15.318515888126372,14.870362613694205,14.625317385874867,9.786263318717262,30.767292085962474,17.41334495519993,1.424923530365152,44.32853969269298,0.0002520598802393066,0.000115952095808192,0.000303652694609397,3.042514970065369e-05,0.00012104790419125012,0.0002024970059875669,7.813173652687606e-05
-0.21000000000005947,17.274512652113547,98.81819088962408,15.335041942255588,13.688824211497433,9.164479902881778,9.418432077734533,26.340131752874374,14.038728118788875,1.2771446021824573,40.03363833288539,0.000256819277108474,0.00012006024096395296,0.00044122891566208267,2.9000000000056758e-05,0.00015730120481912332,0.00036578313252895315,0.00011659036144547658
-0.20000000000005969,17.87702838108008,103.2696676506157,15.452472481878587,12.4977368654592,3.5040143502591863,9.725565975250403,21.758816662871173,11.154803373141064,1.29006276772922,35.9677118742901,0.0002520000000001684,0.00010499999999999633,0.0005339999999995071,2.9000000000056758e-05,0.00018199999999987508,0.0005699999999988541,0.00016899999999970457
-0.1900000000000599,18.330230191474058,106.14625661632718,15.5222373194894,11.274992386857354,-1.8819080636105476,10.296506175643584,17.30572133944034,8.84545385585165,1.5271691016110978,32.2382640948815,0.0001669700598807482,0.00010859281437118451,0.0003669341317374987,3.6185628742537845e-05,8.319760479098361e-05,0.00034724550898330064,0.0001977425149698936
-0.1800000000000601,18.612927172027156,107.22757330107602,15.42999162390699,10.034135448037302,-6.313869694880087,10.825819650766142,13.313054701369843,7.2136904571650415,2.054606872908956,28.94920541027676,9.359880239544967e-05,9.874850299421819e-05,0.00024255089820382977,4.435928143712292e-05,7.410778443012937e-05,0.00017804191616798464,0.00019486826347343679
-0.17000000000006033,18.720002718504304,106.74733141728794,15.117818171412983,8.823279351035977,-8.922540211802012,11.13622766863534,10.136397169642773,6.382599190219202,2.935113531763754,26.18338471781127,4.389820359308939e-05,6.162275449128791e-05,0.0002048263473056727,5.45389221556458e-05,0.00024716167664568314,0.00011756287425180823,0.00012780239520997352
-0.16000000000006054,18.68806365772737,105.38511765998817,14.59499663043332,7.714803241940593,-8.703543789871516,11.1735080490032,8.123359897113835,6.485518643361504,4.220560547872171,23.99184042674233,3.654216867462348e-05,3.110843373518942e-05,0.00027827710843297625,7.509638554202655e-05,0.0003274698795178775,5.962650602436871e-05,0.00011812048192759412
-0.15000000000006075,18.617177682231375,104.17702963286109,13.937827283364838,6.794473216337442,-4.618826093609642,10.981860742475932,7.590996663162878,7.645855865567438,5.93511651203216,22.407526025209098,5.099999999993849e-05,4.000000000273933e-06,0.00040899999999911537,0.0001009999999998659,0.00035999999999983625,3.000000000251689e-06,0.0001379999999998688
-0.14000000000006096,18.683262915459945,104.34120025247728,13.272172661265508,6.137591609091579,4.270540916857874,10.669431352038616,8.786169767995242,9.954143068064202,8.07089823473066,21.450519308148735,9.890419161648884e-05,3.2742514969834834e-05,0.00021678443113886246,0.00010698802395205101,0.0006031137724536613,3.294011976031876e-05,0.00015237125748494498
-0.13000000000006118,19.14045556085376,107.08260397981668,12.754697213469164,5.798916557410484,18.655278001606828,10.372065067113004,11.871788743399225,13.44533760443034,10.573164405258225,21.16071651710033,0.00014542514970033006,4.666467065867433e-05,0.0001605209580826198,0.00014261676646648024,0.0007877365269457118,9.923952095732596e-05,0.00017148502993995736
-0.12000000000006139,20.313770139567737,113.3920737109141,12.550849001294656,5.802186888383921,38.82225920956976,10.222236807295584,16.903080117690283,18.077830745249717,13.335592566250973,21.612294839086857,0.00018913772455062198,3.049700598821604e-05,0.0003802814371245329,0.00023842514970003956,0.0008536047904187797,0.00023935928143633747,0.00020022754491001187
-0.1100000000000616,22.58664195311986,123.8927502345075,12.816680580332392,6.138430862249215,64.5488007293811,10.325016856626771,23.814957255160074,23.723998810637568,16.20444442302817,22.916122018026176,0.00018491566265073863,2.50000000000755e-05,0.0006772530120461705,0.00016643373494072477,0.0008048313253018509,0.00017806024096486147,0.0002835542168668055
-0.10000000000006182,26.36920589003396,138.6850464022388,13.683270248981737,6.769429890826095,94.90472236447202,10.739885137110567,32.37315278085243,30.137719017102096,18.97757608105241,25.193940225643985,0.0001560000000001086,2.4999999999941735e-05,0.0010139999999978144,8.000000000964863e-06,0.0006970000000006267,1.3000000000982115e-05,0.0003949999999993334
-0.09000000000006203,32.08310999670274,157.36433147191175,15.248325129366732,7.641048889392443,128.3882307108603,11.469546295990636,42.20247510489781,36.98722365203709,21.44238345103023,28.54945979084149,8.713772455133091e-05,1.4221556886257172e-05,0.0010577125748500757,2.6562874251394268e-05,0.0008682574850288976,3.57544910178007e-05,0.00048122754490965747
-0.08000000000006224,40.11731401772323,178.99838714266548,17.568933076940407,8.697627171758185,162.90201897782646,12.455047749345109,52.763806470935364,43.84283526396541,23.392346118884763,33.021725246525484,4.495209580836094e-05,1.3718562874124212e-05,0.0009887904191636038,7.812574850228809e-05,0.0008525808383257774,7.115568862234779e-05,0.0006259461077828206
-0.07000000000006246,50.78075451823953,202.20522225979022,20.655477044884098,9.898996651684726,195.94832422633252,13.580529346626504,63.38914887309454,50.205875821427,24.660732130237378,38.55049778740197,5.692814371249768e-05,3.407784431130293e-05,0.00069118562874427,0.0001966886227538003,0.00045737125748746986,0.00013223353293371776,0.0008894191616750256
-0.06000000000006267,64.24048448435833,225.27713620099829,24.46427901580358,11.235628809092317,224.88555999404514,14.68964435525978,73.34186048554528,55.5477839898423,25.147877078951055,44.95869048331674,7.650602409622274e-05,4.179518072288747e-05,0.00035701204819482815,0.0002377951807229056,0.00026137349397650225,0.00020190361445737059,0.001084759036143584
-0.05000000000006288,80.46773213146464,246.37832923303324,28.893172315923778,12.740723294376961,247.26000149448424,15.61341556097025,81.9109103552376,59.367930530424736,24.837857985368025,51.96530168155797,9.999999999984292e-05,4.299999999989674e-05,4.0000000020877285e-06,0.00023899999999998174,0.00016800000000060975,0.0002759999999995933,0.001244999999999
-0.040000000000063096,99.09879146564626,263.68982673733433,33.75537700507056,14.487105596200381,261.0462103120115,16.199919255548476,88.47596867984002,61.247956615864375,23.802968017436754,59.18390510656225,4.850299401233502e-05,4.0005988023921894e-05,0.0007459161676600551,0.00010786227544992881,0.00013865868263491376,0.00014007185628827558,0.001125239520958833
-0.03000000000006331,119.47616763139027,275.7902200355799,38.804366010562674,16.589013109194138,265.05806427724053,16.35226751244391,92.64561848715405,60.94634894345992,22.188351056022455,66.20392590802673,4.3245508981556294e-05,3.385029940124942e-05,0.0022511796406994734,2.5730538922055934e-05,0.00013856287425110812,0.0001264610778428149,0.0020968502993811873
-0.020000000000063523,140.56493541446847,281.78692711025633,43.724742583296894,19.177909334581557,259.0193912637315,16.048497573083473,94.26931648303338,58.43803403531395,20.18640105476037,72.60186498700988,0.00013186826347259367,2.1275449101819412e-05,0.005306269461058625,4.309580838310075e-05,0.00019784431137686423,0.0003611916167649987,0.005284275449081684
-0.010000000000063736,161.00117428514213,281.4619851833175,48.15680748657384,22.374264028503294,243.6215679560542,15.353438632613207,93.44734249873257,53.944639079108384,18.005103469002016,77.98014532364289,0.00020971084337305674,6.073493975857077e-05,0.01612293975894206,4.900000000000988e-05,0.0004625180722867908,0.0012600361445704604,0.006296433734940447
-6.394884621840902e-14,179.21128696342763,275.24455927330735,51.73246386333248,26.252827215375014,220.38100562970214,14.412883634839025,90.4831365344394,47.90771507276951,15.835423877545013,81.99385376235226,0.00028199999999943114,0.00012699999999956447,0.03093799999990517,4.900000000007676e-05,0.0008329999999976036,0.002500999999992095,0.006188000000000692
0.009999999999935838,193.51085623506737,264.096306249306,54.10550457196091,30.784780655673085,191.51255823365616,13.438251768294203,85.8221729635312,40.94925696330934,13.835750425262338,84.3563858158153,0.00027182035928150216,0.00019346706586787445,0.019973928143782908,6.277245508967282e-05,0.001831203592807964,0.006457886227519484,0.004159856287438184
0.019999999999935625,202.43868608136526,249.26433349754896,55.02587909985881,35.827663855683156,159.511979311949,12.67119353475484,79.95061470014774,33.74178831216724,12.103737558880578,84.89030596715268,0.000225874251497836,0.00027969461077766925,0.012014239520969987,7.140718562865285e-05,0.002026934131745811,0.008397425149714494,0.002786574850299686
0.02999999999993541,204.91887404978385,232.0890120654364,54.3769900392317,41.09704769947437,126.96704818986967,12.353600394056174,73.33899712926824,26.934690758264523,10.68089961913432,83.54398112560011,0.0001073113772463238,0.00040604191616679716,0.010154359281449189,6.961077844317194e-05,0.0005934011976141147,0.006241137724564848,0.002742862275449382
0.0399999999999352,200.4781777321296,213.83034785663898,52.21851454943133,46.18421759119956,96.28474344126622,12.69415585545292,66.40077376232811,21.06825932022072,9.556327097488614,80.4306764693836,0.00017156626505927366,0.0003694819277115874,0.008185698795193704,4.912048192795801e-05,0.00013303614457806833,0.007457783132511241,0.005167216867446275
0.049999999999934985,189.3346555301993,195.555017047927,48.79306251320146,50.60094903383878,69.46964028461657,13.8403880565788,59.47480090863304,16.520707157970794,8.68061255502611,75.84265992074657,0.0003299999999990674,0.0002490000000008038,0.006161000000012671,1.9000000000178508e-05,0.0001739999999997528,0.010411999999981665,0.008862999999977025
0.05999999999993477,172.3305214967023,178.05674786891146,44.48942796680471,53.852127992469455,47.93249718888847,15.859711679800572,52.817084653877735,13.483146427241447,7.983147623631011,70.22427762298842,0.0004791017964062063,0.00013223353293488236,0.004216089820371499,5.07365269459491e-05,0.0014242994011898042,0.007197628742535062,0.006902520958096077
0.06999999999993456,150.85906232217025,161.90792384020094,39.80188304951213,55.508046943770744,32.467416771934104,18.71671493293876,46.63547410042827,11.973919149945724,7.392002800364591,64.14289061881162,0.00062049700598715,8.205988023898071e-05,0.0027630179640747514,5.955089820385085e-05,0.002693173652686424,0.004917928143714961,0.004614610778461644
0.07999999999993435,126.56838926481508,147.37980227941298,35.236374326311555,55.306597351386884,23.104443517389853,22.280022098914753,41.06062876920456,11.845408075240403,6.843291555070451,58.17858288586322,0.0007462455089812507,0.0001670898203587239,0.0023085269461106546,2.1826347305494352e-05,0.0039997604790337,0.004535892215571244,0.0016619161676832929
0.08999999999993413,101.22792297423247,134.56769512245694,31.2673891478001,53.20037457543061,19.267796171230284,26.318267674958786,36.182577832449795,12.836213770640535,6.292840288002034,52.85813688618674,0.0007901927710843557,0.00020991566265048952,0.002086807228916308,1.7746987951568603e-05,0.004869421686742899,0.0035555542168756167,0.0023521325301041774
0.09999999999993392,76.52774235406943,123.43768857147678,28.28980949091519,49.38240368634319,19.88868451184583,30.51600240170156,32.05047903219107,14.61249413707127,5.720117423847208,48.56764091707248,0.0007920000000000033,0.00023099999999995742,0.0019850000000006655,3.0999999999807474e-05,0.005513999999995842,0.0022670000000082034,0.004918999999983585
0.1099999999999337,53.91946794812113,113.88623843216595,26.591429490445314,44.255358215066224,23.59110417001691,34.50251121980239,28.676508673582823,16.813317628612104,5.129203276485594,45.497411663575036,0.0006375089820369475,0.00032261676646647825,0.003691586826336299,7.111976047869984e-05,0.003994239520967855,0.002602329341315177,0.0019884610778631404
0.1199999999999335,34.482233286541536,105.77165687973792,26.33620159677961,38.3503844644313,28.904067416969166,37.89817671991472,26.035107089782276,19.093958122939757,4.545953754365772,43.627436759244524,0.00044033532934318947,0.00036977245509004636,0.004123425149714473,8.989820359293465e-05,0.0025141976047994767,0.002530197604796205,0.00014040119760253006
0.12999999999993328,18.93309407255495,98.95914872430114,27.54800967980661,32.25738897804203,34.43664653409607,40.35470087210654,24.0726761267248,21.15090145602637,4.0155002544211476,42.76608636812122,0.00015650299401387218,0.00032665868263498127,0.0019671377245649257,6.534730538943439e-05,0.0011147964071946926,0.0016307964071914736,0.0004901017964049153
0.13999999999993307,7.501220455833468,93.27486636049572,30.09495825475997,26.50075565778478,39.07503091109716,41.62990052334851,22.693250761569306,22.761976394180387,3.5918966429762484,42.60796114717593,0.0002798674698773696,0.00020902409638653594,0.0014260361445764427,5.1036144578417927e-05,0.000561867469880265,0.0008793012048236904,0.0004622891566279549
0.14999999999993285,0.049264720847467025,88.54230157757813,33.68889868147832,21.497484922792733,42.066983021341485,41.61665945962639,21.775566107620765,23.792739821717177,3.332229051260304,42.82486200497913,0.0006129999999977851,5.300000000099523e-05,0.0017169999999980562,4.200000000004588e-05,0.00044500000000076905,0.00020400000000442048,0.00024000000000145812
0.15999999999993264,-3.8715387215049155,84.57956117802865,37.904592557958765,17.51493773624197,43.06265124758555,40.36659591212339,21.180847601740922,24.201121649776734,3.286739496129699,43.136716643352756,0.0007477305389212591,0.00012964670658623367,0.0017170000000000351,4.978443113768405e-05,0.0013875149700536527,0.0008626826347261985,0.0003681437125740048
0.16999999999993243,-4.922976351653653,81.20228535057812,42.2328470439736,14.660306789843261,42.08168478452006,38.075849139660335,20.76606398261977,24.02629887303287,3.489895216938073,43.363562164503215,0.0008502514970057265,0.0001962155688618879,0.0016055508982058893,5.914970059873392e-05,0.00211385029939928,0.0011951197604812426,0.00043088023952142333
0.17999999999993221,-3.8736613001391156,78.2386563335438,46.13804965757347,12.906633305055449,39.439218731028184,35.05898611124128,20.399774293047564,23.37217176766752,3.951496172288321,43.45216871829808,0.0008873772455086568,0.00024232335329315343,0.0012678263473076242,7.172455089809744e-05,0.002401275449099858,0.0008651796407207262,0.0003608203592818968
0.189999999999932,-1.5054124232630859,75.51008561656153,49.17368991966022,12.109398957397627,35.63408141460763,31.68703235027985,19.973199699391774,22.385036511897706,4.652829721561205,43.47690324526364,0.0008065662650611852,0.00029418072289127115,0.0010456506024106918,6.725301204825995e-05,0.0021666144578346962,0.0009585542168653698,0.00045945783132404826
0.1999999999999318,1.4735103542502848,72.85435366567205,51.04635915307161,12.061201275032412,31.242909790017556,28.34681643315363,19.412418348925577,21.229845243547118,5.544542612356523,43.60589300022131,0.0006650000000010933,0.0003489999999996737,0.000883000000001065,5.4000000000087954e-05,0.0016630000000034252,0.0012699999999979464,0.0006449999999987403
0.20999999999993157,4.482926538965684,70.14431502589899,51.67137099324275,12.530172684178321,26.82331814589719,25.39301174210437,18.683812029051065,20.065333047651595,6.549157131797678,44.04125439268401,0.00038535928143902963,0.000397502994011623,0.0005752155688643875,5.040718562872854e-05,0.0008498263473109135,0.0010897604790431567,0.0007461976047897314
0.21999999999993136,7.101494143380653,67.31740880689911,51.17922522305358,13.295126646932628,22.83780592552831,23.109919917799044,17.79398744771169,19.023589150557484,7.5677992994624255,44.94934300982835,0.00019286227544913415,0.000425850299401226,0.0005594910179601965,4.9185628742461575e-05,0.00032100598802362095,0.0008038023952129878,0.0007825808383240028
0.22999999999993115,9.074437446828973,64.39712415931687,49.87620708128982,14.171819023761532,19.602673249832815,21.68494622162603,16.782539933541095,18.197906508446913,8.491950208482496,46.40402020182622,0.00017729341317370318,0.00041327544910186247,0.0011367365269421936,5.277844311382226e-05,0.0003695089820355942,0.00030320359281779165,0.0006873712574856786
0.23999999999993094,10.292253437631233,61.510674038769906,48.18027623357275,15.023432911611774,17.282794856772213,21.201836002503722,15.715128979901278,17.644035705855625,9.214029082251551,48.34787801604348,0.0002614578313243305,0.0003453855421693113,0.0012129277108446446,6.473493975894514e-05,0.00027387951807346513,0.00022524096385448004,0.0005818433734947388
0.24999999999993072,10.774572434226616,58.849194686130595,46.528935066038564,15.769442322213191,15.883221238070242,21.632906925282477,14.6636130196658,17.379930025506006,9.648408279715026,50.60039689610599,0.0003969999999990417,0.00024900000000061147,0.0010310000000012644,8.099999999977404e-05,0.00010400000000119759,0.00036499999999909153,0.0004710000000007741
0.2599999999999305,10.626635579273461,56.633098075963936,45.30566682242446,16.37572895969587,15.294561404914562,22.85521197337205,13.697227971069932,17.39584441772834,9.74107981646013,52.87968905360321,0.00039700000000004716,0.0001957065868267249,0.0004274071856329415,6.902395209589941e-05,0.00014232335329313907,0.00026679640718637335,0.00043686826347328836
0.2699999999999303,10.005800632105734,55.05297403623047,44.77683160619912,16.840608057581143,15.329976222196652,24.664517408123416,12.871883723863109,17.657648126767512,9.479156098314965,54.84977649431077,0.00036558083832408453,0.00013391616766526796,7.259880239417649e-05,5.309580838345986e-05,0.00020514970059799353,0.00017175449101862746,0.00035511377245633197
0.2799999999999301,9.0890062579129,54.21773745322156,45.052405221442186,17.176006383166275,15.764545151763464,26.79760286459629,12.22353275080005,18.10824895902727,8.891750923947901,56.177956854891825,0.00027037125748568554,5.487425149759317e-05,0.00022289820359184387,2.9143712574986933e-05,0.0003177245508974041,8.313173652755684e-05,0.00017667065868389508
0.28999999999992987,8.04517214585451,54.11996515663997,46.074716501617104,17.391755600941988,16.369809061366443,28.96473474491855,11.764248883123464,18.67055465885731,8.042128580914985,56.59348189721675,0.00016722891566334843,3.634939759027716e-05,0.0001829518072298756,2.2590361445705786e-05,0.00021922891566409738,0.0001611445783120868,6.987951807278262e-05
0.29999999999992966,7.020333499815534,54.62669805684395,47.62763109593875,17.486830771046694,16.939411527639763,30.878513831330306,11.484410717389125,19.25143148867697,7.019127759079364,55.93412647662546,6.0000000000672796e-05,4.899999999988034e-05,4.500000000078191e-05,2.499999999992547e-05,1.2000000001438594e-05,0.00032499999999885816,4.78634601570882e-16
0.30999999999992944,6.119643079514542,55.50048527434132,49.38173094074171,17.45119378720538,17.314496227819713,32.30458718803184,11.355517153412972,19.75421180193127,5.9179238647868955,54.17405437985067,7.556886227527484e-05,9.750299401167802e-05,0.0001737425149691497,3.577844311368512e-05,0.00011738922155620038,0.0005968562874233096,0.0001916167664657698
0.31999999999992923,5.407276742479793,56.44816519914208,50.950120609811485,17.271628039623597,17.39375318191516,33.077145178298835,11.341646511990042,20.083958541821744,4.83050996507469,51.421294942456136,7.493413173666377e-05,0.00012110778443135946,0.0002564431137725739,3.766467065880816e-05,0.00015855688622816666,0.0008627844311360208,0.0003257305389220385
